id,attr_time,attr_x,attr_y,attr_z
1,1437143340012,-0.36391866,10.113108,1.5442601
2,1437143340032,-0.3489549,10.079589,1.5436616
3,1437143340052,-0.37588966,10.098145,1.5173253
4,1437143340074,-0.46387658,10.165182,1.4808137
5,1437143340093,-0.46986207,10.131663,1.4879963
6,1437143340113,-0.46028528,10.136452,1.4275428
7,1437143340132,-0.45010993,10.079589,1.453879
8,1437143340161,-0.36032736,10.067618,1.4969746
9,1437143340232,-0.3172317,10.1304655,1.4975731
10,1437143340233,-0.3477578,10.196306,1.4760253
11,1437143340234,-0.4261679,10.205285,1.4628572
12,1437143340235,-0.48722005,10.119692,1.4664485
13,1437143340252,-0.52492875,10.044274,1.4867992
14,1437143340272,-0.54647654,10.052654,1.4574703
15,1437143340291,-0.5363012,10.119094,1.4377182
16,1437143340311,-0.48961425,10.19092,1.4616601
17,1437143340336,-0.41838676,10.151415,1.4969746
18,1437143340352,-0.41838676,10.085575,1.5053543
19,1437143340372,-0.49919105,10.077793,1.4556746
20,1437143340392,-0.5093664,10.101735,1.4520833
21,1437143340413,-0.4225766,10.155605,1.4526819
22,1437143340434,-0.35553896,10.102933,1.5113398
23,1437143340454,-0.3226187,10.035895,1.5280992
24,1437143340474,-0.4189853,10.0341,1.5125369
25,1437143340493,-0.5363012,10.103531,1.4185646
26,1437143340513,-0.54408234,10.185533,1.4257472
27,1437143340534,-0.4249708,10.157999,1.4867992
28,1437143340554,-0.30346507,10.087969,1.5915456
29,1437143340574,-0.33638534,10.10413,1.5939398
30,1437143340593,-0.4381389,10.105327,1.5454572
31,1437143340613,-0.5141548,10.189124,1.4335283
32,1437143340631,-0.5255273,10.19451,1.4652514
33,1437143340653,-0.49919105,10.101137,1.5340848
34,1437143340675,-0.45190558,10.05864,1.5717934
35,1437143340692,-0.46627077,10.110115,1.5400703
36,1437143340741,-0.47764325,10.180744,1.4808137
37,1437143340742,-0.439336,10.199898,1.4736311
38,1437143340753,-0.40880993,10.132261,1.5071499
39,1437143340774,-0.40043023,10.068815,1.5388732
40,1437143340793,-0.42916065,10.101137,1.4867992
41,1437143340813,-0.45669398,10.098145,1.4431051
42,1437143340832,-0.39863458,10.152613,1.4508862
43,1437143340852,-0.32022446,10.131064,1.5023615
44,1437143340873,-0.2896984,10.141838,1.5340848
45,1437143341002,-0.3250129,10.149021,1.5035586
46,1437143341003,-0.3728969,10.137649,1.532289
47,1437143341004,-0.41240123,10.1226845,1.5753847
48,1437143341005,-0.3597288,10.178948,1.5795746
49,1437143341006,-0.4818331,10.080188,1.5646108
50,1437143341007,-0.5398925,10.030508,1.5705963
51,1437143341024,-0.670975,10.060435,1.567005
52,1437143341035,-0.641646,10.0903635,1.4012065
53,1437143341053,-0.6859388,10.119094,1.3623008
54,1437143341072,-1.1168951,10.189722,0.94331545
55,1437143341092,-1.0378864,10.038888,1.0779893
56,1437143341116,-0.5931635,9.960478,1.3132197
57,1437143341133,-0.0712275,9.99639,1.6166847
58,1437143341152,0.20949265,9.951499,1.7633295
59,1437143341172,0.20530279,10.101735,1.7292122
60,1437143341194,0.08798691,10.229825,1.6304513
61,1437143341214,-0.017357962,10.288484,1.6095021
62,1437143341234,-0.018555064,10.319608,1.5664065
63,1437143341254,-0.2896984,10.357317,1.3078327
64,1437143341274,-0.4890157,10.16578,1.377863
65,1437143341293,-0.4261679,10.120889,1.371279
66,1437143341315,-0.33518824,10.034698,1.483208
67,1437143341335,-0.3333926,10.02153,1.5921441
68,1437143341355,-0.45549688,10.035296,1.477821
69,1437143341375,-0.670975,10.02572,1.532289
70,1437143341394,-0.7703344,10.125677,1.4065934
71,1437143341415,-0.92895025,10.165182,1.2773066
72,1437143341435,-0.96665895,10.053253,1.3078327
73,1437143341455,-0.7146692,10.016742,1.4275428
74,1437143341475,-0.44951138,10.056246,1.5688007
75,1437143341493,-0.3465607,10.022727,1.6514006
76,1437143341514,-0.31902736,10.115502,1.5897499
77,1437143341534,-0.42197806,10.160992,1.5460558
78,1437143341554,-0.5770026,10.160992,1.484405
79,1437143341575,-0.65242,10.149021,1.436521
80,1437143341593,-0.587178,10.144233,1.5005659
81,1437143341613,-0.52373165,10.120889,1.5652094
82,1437143341633,-0.47524905,10.093356,1.5855601
83,1437143341659,-0.44891283,10.068815,1.5616181
84,1437143341728,-0.40581718,10.110714,1.5903485
85,1437143341732,-0.40102878,10.193314,1.6262615
86,1437143341733,-0.40043023,10.208876,1.6603789
87,1437143341734,-0.3866636,10.192117,1.543063
88,1437143341753,-0.40641573,10.084377,1.6406267
89,1437143341775,-0.39205053,10.119094,1.5041572
90,1437143341792,-0.5398925,10.157999,1.423353
91,1437143341812,-0.65900403,10.171766,1.4460979
92,1437143341833,-0.5506664,10.1621895,1.4305356
93,1437143341854,-0.5351041,10.027515,1.4460979
94,1437143341875,-0.5482722,9.964069,1.5298948
95,1437143341893,-0.38965634,10.089765,1.525705
96,1437143341915,-0.3417723,10.127473,1.6136919
97,1437143341933,-0.38845924,10.187328,1.543063
98,1437143341954,-0.36391866,10.05864,1.5053543
99,1437143341972,-0.33518824,10.1065235,1.4921862
100,1437143341995,-0.3764882,10.1382475,1.4921862
101,1437143342013,-0.39264908,10.197504,1.4293385
102,1437143342036,-0.46148238,10.065823,1.4736311
103,1437143342056,-0.3890578,10.006566,1.5107412
104,1437143342076,-0.30705637,10.049063,1.5574282
105,1437143342096,-0.38187516,10.117896,1.496376
106,1437143342118,-0.47225627,10.143036,1.5125369
107,1437143342136,-0.40222588,10.134656,1.4939818
108,1437143342156,-0.40282443,10.064027,1.5526398
109,1437143342174,-0.45789108,10.038888,1.5574282
110,1437143342194,-0.4842273,10.121488,1.46585
111,1437143342216,-0.5374983,10.048465,1.5035586
112,1437143342233,-0.44651863,10.040684,1.5514427
113,1437143342254,-0.40462008,10.044274,1.5813702
114,1437143342274,-0.45908818,10.107122,1.5927427
115,1437143342293,-0.49559975,10.1861315,1.5969325
116,1437143342314,-0.45489833,10.163386,1.5502456
117,1437143342333,-0.41958386,10.014946,1.5849615
118,1437143342354,-0.44232875,9.980229,1.5478514
119,1437143342382,-0.504578,10.019135,1.5586253
120,1437143342437,-0.5650316,10.134057,1.4820108
121,1437143342438,-0.53809685,10.176555,1.5071499
122,1437143342439,-0.5291186,10.136452,1.5077485
123,1437143342460,-0.45968673,10.036493,1.5837644
124,1437143342474,-0.41000703,10.030508,1.6310499
125,1437143342495,-0.4770447,10.107122,1.5759833
126,1437143342514,-0.6368576,10.161591,1.4969746
127,1437143342535,-0.6440403,10.13705,1.4879963
128,1437143342555,-0.5835867,10.10413,1.5813702
129,1437143342574,-0.55844754,10.053851,1.5699978
130,1437143342594,-0.6410475,10.12448,1.5221137
131,1437143342613,-0.5590461,10.123882,1.5532384
132,1437143342635,-0.42317516,10.134057,1.602918
133,1437143342653,-0.49559975,10.141838,1.602918
134,1437143342676,-0.53211135,10.136452,1.5711949
135,1437143342693,-0.5710171,10.167576,1.501763
136,1437143342714,-0.641646,10.158598,1.4945804
137,1437143342735,-0.61112,10.086772,1.4736311
138,1437143342756,-0.54647654,10.053851,1.5933412
139,1437143342775,-0.51714754,10.070611,1.5891514
140,1437143342794,-0.6362591,10.128072,1.5562311
141,1437143342816,-0.670975,10.208876,1.5125369
142,1437143342835,-0.61112,10.10413,1.5346833
143,1437143342857,-0.44651863,9.970653,1.5993267
144,1437143342877,-0.49081135,10.064027,1.6208745
145,1437143342895,-0.6925228,10.25676,1.5412674
146,1437143342917,-0.83258367,10.251971,1.5328877
147,1437143342934,-0.8439561,10.051457,1.5053543
148,1437143342966,-0.7332243,9.809045,1.6358383
149,1437143342978,-0.6757634,9.89344,1.584363
150,1437143342997,-0.8379706,10.258555,1.4514848
151,1437143343016,-0.79248077,10.387842,1.4407109
152,1437143343037,-0.55006784,10.282497,1.5867572
153,1437143343057,-0.3429694,10.089765,1.7681179
154,1437143343075,-0.32680854,9.983821,1.7130513
155,1437143343103,-0.37110126,9.999383,1.6071079
156,1437143343158,-0.5410896,10.094553,1.5370775
157,1437143343159,-0.6751649,10.149021,1.5616181
158,1437143343160,-0.688333,10.197504,1.5747862
159,1437143343181,-0.5943606,10.196905,1.6424223
160,1437143343194,-0.4782418,10.1699705,1.6675615
161,1437143343214,-0.45848963,10.0903635,1.726818
162,1437143343235,-0.4225766,9.991602,1.6418238
163,1437143343254,-0.44472298,9.928755,1.6436194
164,1437143343276,-0.6572084,9.825205,1.6819267
165,1437143343294,-0.7541735,9.937733,1.6089035
166,1437143343315,-0.8619126,10.00477,1.5466543
167,1437143343341,-0.8690952,10.084377,1.5209166
168,1437143343385,-0.8451532,10.095152,1.4718355
169,1437143343386,-0.6314707,9.929353,1.541866
170,1437143343394,-0.39264908,9.900024,1.6430209
171,1437143343414,-0.42197806,9.993398,1.7106571
172,1437143343436,-0.62488663,10.164583,1.6531962
173,1437143343456,-0.7703344,10.2896805,1.5472529
174,1437143343477,-0.75956047,10.159795,1.5903485
175,1437143343498,-0.7086837,10.0903635,1.6639702
176,1437143343517,-0.717662,10.038289,1.7363948
177,1437143343537,-0.789488,10.03769,1.7764976
178,1437143343558,-0.88166475,10.073604,1.79206
179,1437143343577,-1.0049661,10.162787,1.7741034
180,1437143343595,-1.0714053,10.169372,1.7232267
181,1437143343616,-0.9091981,10.10413,1.7393875
182,1437143343638,-0.7308301,10.081385,1.7369933
183,1437143343655,-0.65062433,10.125079,1.7328035
184,1437143343674,-0.599149,10.14124,1.6891093
185,1437143343695,-0.6404489,10.187927,1.6645688
186,1437143343716,-0.65242,10.122087,1.7417817
187,1437143343740,-0.6733692,10.067618,1.7782934
188,1437143343760,-0.74998367,10.024523,1.7190368
189,1437143343778,-0.7679402,10.013748,1.7232267
190,1437143343794,-0.6973112,9.989208,1.7381904
191,1437143343814,-0.65900403,9.983821,1.7711107
192,1437143343835,-0.6967127,10.047866,1.7399861
193,1437143343858,-0.7577648,10.032304,1.6915035
194,1437143343877,-0.75836337,9.988609,1.7088615
195,1437143343984,-0.6865373,9.972448,1.6938977
196,1437143343985,-0.6398504,9.96766,1.6968905
197,1437143343986,-0.6440403,9.947908,1.6729485
198,1437143343987,-0.6733692,9.920375,1.6448165
199,1437143343988,-0.7110779,9.898229,1.7052702
200,1437143344002,-0.6721721,9.97604,1.7381904
201,1437143344015,-0.7368156,10.070611,1.7830818
202,1437143344036,-0.8110358,10.077195,1.8058267
203,1437143344054,-0.7703344,10.040684,1.821389
204,1437143344078,-0.6853402,9.976639,1.8309658
205,1437143344095,-0.6410475,9.904214,1.7776948
206,1437143344116,-0.6159084,9.894038,1.7842789
207,1437143344135,-0.6356605,9.911396,1.763928
208,1437143344160,-0.6631939,9.953295,1.79206
209,1437143344175,-0.7577648,9.961675,1.7980455
210,1437143344197,-0.7368156,9.943718,1.7992426
211,1437143344218,-0.65421563,10.002377,1.8142064
212,1437143344239,-0.65780693,10.172364,1.7567455
213,1437143344257,-0.65301853,10.143634,1.8064252
214,1437143344278,-0.49799395,10.184934,1.8513165
215,1437143344297,-0.4830302,10.089765,1.9069817
216,1437143344318,-0.51595044,10.047866,1.9201498
217,1437143344338,-0.7146692,10.012551,1.9267339
218,1437143344356,-0.8655039,10.057443,1.9087774
219,1437143344376,-0.93732995,10.140042,1.7824832
220,1437143344398,-0.83737206,10.1226845,1.7172412
221,1437143344416,-0.6326678,10.0903635,1.8166006
222,1437143344435,-0.48362875,10.089166,1.9249382
223,1437143344496,-0.5590461,10.110115,1.934515
224,1437143344497,-0.7026982,10.09156,1.8848352
225,1437143344498,-0.80924016,10.102933,1.822586
226,1437143344517,-0.85173726,10.117298,1.8620903
227,1437143344535,-0.7673417,10.073604,1.9758149
228,1437143344555,-0.712275,10.103531,2.0769699
229,1437143344575,-0.7038953,10.126276,2.1146786
230,1437143344595,-0.74878657,10.148422,2.111686
231,1437143344625,-0.7715315,10.207679,2.088941
232,1437143344675,-0.741604,10.169372,2.0991163
233,1437143344676,-0.6075287,10.010158,2.1703439
234,1437143344677,-0.46327803,9.936536,2.243367
235,1437143344695,-0.53570265,9.961076,2.19249
236,1437143344715,-0.7158663,10.12448,2.124854
237,1437143344736,-0.75596917,10.144831,2.0512323
238,1437143344757,-0.705691,10.177153,2.1057005
239,1437143344775,-0.6548142,10.292673,2.1601684
240,1437143344797,-0.43275195,10.202292,2.2840683
241,1437143344815,-0.23163901,10.171766,2.3415294
242,1437143344839,-0.24121583,10.003573,2.2870612
243,1437143344859,-0.4225766,9.863512,2.4235306
244,1437143344876,-0.45250413,9.841965,2.1894975
245,1437143344898,-0.51954174,9.787497,1.9698294
246,1437143344918,-0.8283938,9.669582,2.0374656
247,1437143344941,-1.0271125,9.752781,2.0147207
248,1437143344958,-1.0642227,9.9790325,1.8483237
249,1437143344978,-0.9816227,9.980229,1.8034325
250,1437143344998,-0.7541735,9.919776,1.9321208
251,1437143345018,-0.219668,9.865308,2.2296004
252,1437143345039,-0.107739076,10.002377,2.3385365
253,1437143345059,-0.2885013,9.950302,2.2242134
254,1437143345079,-0.3597288,10.041282,2.0721815
255,1437143345096,-0.060453594,10.084976,2.1045034
256,1437143345119,0.15203181,10.126875,2.2242134
257,1437143345136,0.094570965,10.140042,2.1092918
258,1437143345156,-0.29688102,10.125079,1.8974048
259,1437143345175,-0.5153519,9.999383,1.8070238
260,1437143345199,-0.41120413,10.09994,1.7848774
261,1437143345219,-0.30945057,10.045472,1.8525136
262,1437143345238,-0.19752164,10.046669,1.9698294
263,1437143345259,-0.18914193,10.113707,1.922544
264,1437143345278,-0.35314476,10.0987425,1.9644425
265,1437143345298,-0.42556936,10.13286,2.0003555
266,1437143345318,-0.5835867,10.097546,1.7417817
267,1437143345339,-0.7272388,10.0341,1.7699136
268,1437143345355,-0.5722142,10.031107,1.6927006
269,1437143345385,-0.45190558,9.969456,1.8662802
270,1437143345401,-0.4866215,10.097546,1.910573
271,1437143345417,-0.5494693,10.122087,1.8183962
272,1437143345435,-0.49320555,10.184336,1.7956513
273,1437143345456,-0.3369839,10.202292,1.8255788
274,1437143345476,-0.25498247,10.228029,1.8477252
275,1437143345498,-0.33159694,10.125677,1.7908629
276,1437143345518,-0.38606504,10.057443,1.7753005
277,1437143345537,-0.53091425,10.080188,1.6256629
278,1437143345559,-0.6314707,9.964667,1.6825253
279,1437143345579,-0.5955577,9.986814,1.6693572
280,1437143345596,-0.45729253,9.905411,1.6579847
281,1437143345619,-0.42078096,9.9233675,1.7178397
282,1437143345639,-0.41000703,10.00477,1.596334
283,1437143345659,-0.4854244,9.924564,1.5508442
284,1437143345679,-0.5081693,9.989806,1.5436616
285,1437143345699,-0.4141969,10.0508585,1.5346833
286,1437143345718,-0.41240123,10.08737,1.5161282
287,1437143345740,-0.40462008,10.008362,1.5316905
288,1437143345758,-0.2908955,9.964069,1.5298948
289,1437143345779,-0.34476504,9.886856,1.5280992
290,1437143345799,-0.4830302,9.968858,1.4694413
291,1437143345818,-0.504578,10.031107,1.3868413
292,1437143345839,-0.3477578,10.136452,1.4095862
293,1437143345858,-0.24899697,10.176555,1.4544775
294,1437143345880,-0.219668,10.177153,1.4544775
295,1437143345900,-0.24480712,10.125079,1.4999673
296,1437143345918,-0.3585317,10.128072,1.447295
297,1437143345942,-0.49440265,10.051457,1.3389573
298,1437143345962,-0.45848963,10.057443,1.328782
299,1437143345980,-0.21308395,10.07121,1.4107834
300,1437143346000,-0.15203181,10.093954,1.4095862
301,1437143346017,-0.20410569,10.119094,1.3940239
302,1437143346111,-0.36152446,10.131064,1.4155718
303,1437143346112,-0.32800564,10.128072,1.2970588
304,1437143346113,-0.27832595,10.105926,1.3371617
305,1437143346114,-0.19393034,10.126276,1.3664906
306,1437143346122,-0.24540567,10.073005,1.3587095
307,1437143346146,-0.30765492,10.150218,1.3934253
308,1437143346159,-0.40940848,10.250176,1.3461399
309,1437143346176,-0.5057751,10.157999,1.3970166
310,1437143346197,-0.46866497,10.113707,1.4059949
311,1437143346219,-0.30406362,10.093954,1.4323312
312,1437143346240,-0.15263036,10.045472,1.5376761
313,1437143346263,-0.20829555,10.041881,1.447295
314,1437143346276,-0.3681085,10.159196,1.3916297
315,1437143346299,-0.48123455,10.232818,1.2731167
316,1437143346320,-0.39743748,10.237008,1.4215573
317,1437143346340,-0.20590134,10.222044,1.5688007
318,1437143346360,-0.23582886,10.181343,1.5759833
319,1437143346380,-0.32022446,10.059837,1.5520413
320,1437143346400,-0.32202014,10.103531,1.4508862
321,1437143346420,-0.3854665,10.128072,1.4149733
322,1437143346440,-0.5057751,10.196306,1.3700819
323,1437143346460,-0.516549,10.2657385,1.4012065
324,1437143346480,-0.4213795,10.266336,1.4574703
325,1437143346497,-0.4237737,10.1939125,1.5658079
326,1437143346520,-0.40880993,10.16578,1.5735891
327,1437143346540,-0.40940848,10.211869,1.5400703
328,1437143346560,-0.50397944,10.186729,1.5406688
329,1437143346580,-0.58897364,10.253169,1.4383167
330,1437143346600,-0.65900403,10.085575,1.4694413
331,1437143346620,-0.6865373,10.186729,1.3186066
332,1437143346640,-0.7637503,10.38066,1.1803415
333,1437143346660,-0.7338228,10.345944,1.1671734
334,1437143346681,-0.46387658,10.174759,1.2216414
335,1437143346701,-0.32202014,10.035296,1.3144168
336,1437143346720,-0.30645782,9.838972,1.3311762
337,1437143346740,-0.47465047,9.985617,1.1803415
338,1437143346759,-0.81642276,10.308235,0.9816227
339,1437143346830,-0.86610246,10.359711,0.93493575
340,1437143346831,-0.6811504,10.263943,1.0642227
341,1437143346832,-0.52852005,10.098145,1.2743138
342,1437143346839,-0.45968673,10.017939,1.22224
343,1437143346867,-0.4818331,9.964069,1.1480197
344,1437143346879,-0.7086837,10.078392,1.1546037
345,1437143346942,-0.9876082,10.251373,1.0055647
346,1437143346943,-1.0636241,10.247183,0.95349085
347,1437143346944,-0.8690952,10.153211,1.0570401
348,1437143346965,-0.54049104,10.120889,1.1947067
349,1437143346977,-0.39444473,10.10413,1.3551182
350,1437143347001,-0.35075054,10.123882,1.3329718
351,1437143347021,-0.41299978,10.125677,1.3210008
352,1437143347041,-0.44352585,10.141838,1.3132197
353,1437143347061,-0.29747957,10.300454,1.2982559
354,1437143347081,-0.1316811,10.432734,1.5460558
355,1437143347101,0.1921347,10.658986,1.6813282
356,1437143347121,0.22804771,10.667964,1.8154035
357,1437143347141,0.30526072,10.336966,1.785476
358,1437143347161,0.42916065,9.9473095,1.8543092
359,1437143347181,0.33159694,9.582792,1.9452889
360,1437143347200,0.3812766,9.516354,2.0362685
361,1437143347218,0.32621,9.911396,2.285864
362,1437143347241,0.073023155,10.42196,2.4762032
363,1437143347261,-0.20709845,10.881048,2.7383683
364,1437143347280,-0.5231331,10.955867,2.5887306
365,1437143347301,-0.5021838,10.31901,2.5701754
366,1437143347321,-0.28072014,9.669582,2.5737667
367,1437143347341,-0.04070143,9.223662,2.6378117
368,1437143347361,-0.02932897,9.056067,2.801216
369,1437143347382,-0.64583594,9.061455,2.8568811
370,1437143347401,-1.3365631,9.041104,2.907758
371,1437143347421,-1.4885949,8.935161,2.8125885
372,1437143347441,-1.2719196,8.693346,2.722806
373,1437143347464,-0.87448215,8.886678,2.9975405
374,1437143347540,-0.6823475,9.19134,3.321955
375,1437143347541,-0.6961141,9.454104,3.4009635
376,1437143347542,-0.8774749,9.652225,3.2052376
377,1437143347543,-1.1312603,9.755774,2.837129
378,1437143347561,-1.2988545,9.818023,2.6593595
379,1437143347581,-1.3443443,9.629479,2.6503813
380,1437143347598,-1.0989386,9.533711,2.6300306
381,1437143347623,-0.87448215,9.604341,2.594716
382,1437143347639,-0.7823054,10.602123,2.5061307
383,1437143347661,-0.7374141,11.818976,2.2709002
384,1437143347681,-0.37469256,13.161526,2.160767
385,1437143347699,0.005985504,14.344859,2.110489
386,1437143347721,0.17597382,14.001291,1.8968062
387,1437143347741,0.3453636,12.323555,1.3742718
388,1437143347761,0.36272156,10.280104,0.7577648
389,1437143347781,0.25558102,8.995016,0.14903906
390,1437143347802,-0.025139118,9.0476885,-0.6805518
391,1437143347821,-0.28790274,9.879673,-1.5011644
392,1437143347841,-0.12749124,10.841544,-1.7806876
393,1437143347861,0.18854338,11.152191,-1.2814964
394,1437143347881,0.46447513,10.629657,-0.4782418
395,1437143347913,0.6679823,9.92636,-0.025737667
396,1437143347921,0.53450555,9.196728,0.074220255
397,1437143347941,-0.10055647,8.672996,-0.095169514
398,1437143347965,-0.58538234,8.555081,-0.2172738
399,1437143347979,-0.75716627,8.762778,-0.40162733
400,1437143347999,-0.415394,9.051279,-0.17118542
401,1437143348024,0.31543607,9.435549,0.11911154
402,1437143348044,1.2611457,10.125079,0.20530279
403,1437143348064,2.1428106,10.796054,-0.3776853
404,1437143348082,2.143409,10.849325,-1.0684125
405,1437143348099,2.2756886,11.697471,-1.0049661
406,1437143348118,2.2822728,12.099697,-0.7661445
407,1437143348138,2.3122003,12.871228,-0.44951138
408,1437143348160,2.4552538,13.400946,-0.39624038
409,1437143348183,2.5516205,13.728353,0.094570965
