id,attr_time,attr_x,attr_y,attr_z
1,1437144618018,2.0332758,9.964069,-0.2825158
2,1437144618031,2.098518,9.931149,-0.25079262
3,1437144618054,2.0961237,9.92636,-0.25797522
4,1437144618071,2.0907366,9.916783,-0.2172738
5,1437144618091,1.9841946,9.997588,-0.24301147
6,1437144618113,1.988983,9.9951935,-0.31004912
7,1437144618132,2.071583,9.958083,-0.2705448
8,1437144618152,2.106299,9.9233675,-0.2717419
9,1437144618173,2.2170308,9.909601,-0.20649989
10,1437144618194,2.0745757,9.922769,-0.2184709
11,1437144618211,1.9949685,9.97185,-0.25258827
12,1437144618234,1.9656396,10.018537,-0.26994625
13,1437144618254,2.0536265,9.943718,-0.21428105
14,1437144618274,2.0500352,9.937134,-0.2088941
15,1437144618294,2.059612,9.927557,-0.19692309
16,1437144618314,2.03567,9.951499,-0.23702596
17,1437144618334,2.0907366,9.943718,-0.2184709
18,1437144618354,2.086547,9.964667,-0.19572599
19,1437144618374,2.0667946,9.957485,-0.19512744
20,1437144618393,2.006341,9.96347,-0.19033903
21,1437144618413,2.1039047,10.002377,-0.17776948
22,1437144618435,2.006341,9.955689,-0.1316811
23,1437144618454,2.043451,9.982025,-0.20829555
24,1437144618474,1.9375077,9.952697,-0.20649989
25,1437144618494,2.0362685,9.920973,-0.20051439
26,1437144618515,1.9853917,9.950302,-0.16579847
27,1437144618535,1.905186,10.014347,-0.1436521
28,1437144618554,2.0763714,9.959879,-0.16160862
29,1437144618575,2.0560207,9.946113,-0.17776948
30,1437144618598,2.0069396,9.964667,-0.16400282
31,1437144618619,1.9321208,9.993398,-0.15203181
32,1437144618636,1.9369092,9.967062,-0.16160862
33,1437144618660,1.9812019,9.97604,-0.1352724
34,1437144618722,1.9572599,9.935937,-0.1376666
35,1437144618723,1.8926164,9.986814,-0.093972415
36,1437144618724,1.9758149,10.039486,-0.13108255
37,1437144618754,2.0219033,9.985018,-0.10235212
38,1437144618755,2.0440497,9.941922,-0.073621705
39,1437144618772,1.9877859,9.932944,-0.08559271
40,1437144618798,1.8668787,9.988011,-0.092176765
41,1437144618814,1.894412,9.99639,-0.11731588
42,1437144618833,1.9548657,9.965266,-0.079008654
43,1437144618867,1.8770541,9.960478,-0.090381116
44,1437144618873,1.8327614,9.986216,-0.07182605
45,1437144618900,1.9069817,10.033501,-0.061052144
46,1437144618913,1.970428,10.005369,-0.08738836
47,1437144618935,2.0266917,9.949105,-0.034715924
48,1437144618952,1.9387048,9.946113,-0.025139118
49,1437144618975,1.9135658,9.988609,-0.04129998
50,1437144618995,1.9315223,9.982025,0.0053869537
51,1437144619015,1.7561469,10.007763,-0.077213004
52,1437144619032,1.6962919,10.024523,-0.021547815
53,1437144619052,1.816002,9.981427,-0.109534726
54,1437144619072,1.9901801,9.983821,-0.06284779
55,1437144619095,1.941099,9.967062,0.038905777
56,1437144619117,1.7998412,9.94312,0.05805939
57,1437144619134,1.7824832,10.047866,0.05686229
58,1437144619155,1.8076223,10.042479,0.019153614
59,1437144619173,1.8938135,9.9550905,0.044292733
60,1437144619193,1.8920178,9.901819,0.09696517
61,1437144619212,1.8022354,9.96347,0.09816227
62,1437144619237,1.7657237,10.1382475,0.046686932
63,1437144619258,1.8842367,10.043676,0.14065935
64,1437144619278,1.8632874,9.993997,0.17657238
65,1437144619295,1.827973,10.001179,0.09995792
66,1437144619312,1.8507179,9.979631,0.24720132
67,1437144619333,1.7561469,10.020332,0.23762453
68,1437144619352,1.8477252,9.988609,0.24839842
69,1437144619375,2.03567,9.948506,0.2657564
70,1437144619394,1.9841946,9.898827,0.29927522
71,1437144619465,1.8483237,9.883265,0.18614918
72,1437144619466,1.8136078,9.751583,0.35434186
73,1437144619467,1.1653777,10.023325,0.4830302
74,1437144619474,1.3120226,10.395624,0.32441434
75,1437144619495,1.8716671,10.120291,0.5626374
76,1437144619514,2.0488381,9.965266,0.47345337
77,1437144619533,1.9979613,9.911396,0.40761283
78,1437144619558,1.7340006,9.928755,0.45370123
79,1437144619574,1.654992,9.929353,0.3842694
80,1437144619600,1.5969325,9.8276,0.44592008
81,1437144619625,1.3000516,9.901819,0.64703304
82,1437144619635,0.7757214,10.257359,0.5835867
83,1437144619658,1.1043255,10.212467,0.7194576
84,1437144619674,1.5334862,10.008362,0.6997054
85,1437144619695,1.7645266,9.985617,0.6488287
86,1437144619715,1.6118963,9.953894,0.641646
87,1437144619736,1.2808979,9.931747,0.5758055
88,1437144619756,1.0815806,10.002377,0.5722142
89,1437144619776,1.1779473,10.1460285,0.7691373
90,1437144619796,1.5448587,10.016742,0.7428011
91,1437144619815,1.4083891,9.944916,0.57640404
92,1437144619837,1.3910311,10.01315,0.49200845
93,1437144619854,1.46585,9.953295,0.53211135
94,1437144619876,1.2539631,10.003573,0.57281274
95,1437144619897,1.2312182,10.057443,0.6147113
96,1437144619918,1.3180081,10.078991,0.6039374
97,1437144619938,1.6244658,10.016742,0.60932434
98,1437144619953,1.5029601,9.93474,0.5710171
99,1437144619973,1.2707225,10.005369,0.51355624
100,1437144619993,1.4927847,9.986814,0.5021838
101,1437144620014,1.3563153,9.993997,0.6003461
102,1437144620039,1.1432313,10.070012,0.52852005
103,1437144620059,1.2862848,10.156802,0.5117606
104,1437144620079,1.5652094,10.073604,0.48722005
105,1437144620094,1.6160861,10.026319,0.4997896
106,1437144620114,1.4933833,10.017939,0.5315128
107,1437144620286,1.3628993,10.008362,0.59495914
108,1437144620287,1.4377182,10.029909,0.52253455
109,1437144620288,1.6041151,10.017939,0.5650316
110,1437144620289,1.5328877,10.044873,0.50637364
111,1437144620290,1.4760253,10.001778,0.5009867
112,1437144620291,1.5286977,10.020332,0.4878186
113,1437144620292,1.555034,10.065224,0.5422867
114,1437144620293,1.5245079,10.043676,0.46686932
115,1437144620320,1.4413095,10.03769,0.46148238
116,1437144620321,1.4850036,10.035895,0.4973954
117,1437144620364,1.5676036,10.010158,0.48003745
118,1437144620365,1.5346833,10.032902,0.48961425
119,1437144620384,1.555034,10.043077,0.49081135
120,1437144620404,1.608305,10.028712,0.45130703
121,1437144620418,1.5807717,10.010756,0.4818331
122,1437144620436,1.525705,9.988011,0.48003745
123,1437144620456,1.5059528,10.00896,0.43634325
124,1437144620476,1.4975731,9.998186,0.44113165
125,1437144620494,1.5891514,10.019734,0.4309563
126,1437144620514,1.5622166,10.005369,0.47465047
127,1437144620534,1.5646108,10.040085,0.45429978
128,1437144620555,1.6448165,10.00896,0.51595044
129,1437144620576,1.6657659,9.970653,0.42197806
130,1437144620597,1.5819688,10.008362,0.4381389
131,1437144620618,1.5358804,10.013748,0.46447513
132,1437144620637,1.5634137,9.997588,0.44951138
133,1437144620660,1.6376339,10.027515,0.44472298
134,1437144620683,1.5155296,10.024523,0.46507367
135,1437144620695,1.4718355,10.032304,0.41000703
136,1437144620714,1.5711949,10.047866,0.40282443
137,1437144620734,1.5634137,10.0341,0.4201824
138,1437144620756,1.6358383,10.010756,0.4357447
139,1437144620774,1.757344,9.960478,0.45010993
140,1437144620798,1.614889,9.968259,0.40282443
141,1437144620817,1.6142905,10.044873,0.43514615
142,1437144620837,1.5526398,10.036493,0.42676646
143,1437144620857,1.5915456,10.027515,0.4165911
144,1437144620877,1.6699557,10.026319,0.3669114
145,1437144620898,1.6795325,10.005967,0.3890578
146,1437144620914,1.7633295,9.993997,0.37828386
147,1437144621024,1.690905,10.020931,0.39803603
148,1437144621025,1.6567876,10.005967,0.42676646
149,1437144621026,1.6448165,10.030508,0.39564183
150,1437144621027,1.6681601,9.982624,0.3890578
151,1437144621028,1.6837224,9.993398,0.38845924
152,1437144621037,1.6196774,9.991602,0.41838676
153,1437144621054,1.7082629,9.987412,0.4141969
154,1437144621074,1.7106571,10.001778,0.41060558
155,1437144621096,1.7393875,9.953295,0.31184477
156,1437144621114,1.8327614,10.015544,0.34356794
157,1437144621136,1.6525977,9.985617,0.37828386
158,1437144621154,1.5921441,10.047267,0.37948096
159,1437144621175,1.7675194,10.0341,0.40462008
160,1437144621200,1.8028339,9.976639,0.40102878
161,1437144621215,1.6771383,9.968259,0.39683893
162,1437144621237,1.7040731,9.983821,0.35673606
163,1437144621257,1.769315,9.991602,0.4345476
164,1437144621277,1.7938557,10.005369,0.374094
165,1437144621297,1.7764976,9.975441,0.3226187
166,1437144621317,1.7034745,10.005967,0.3609259
167,1437144621338,1.6663644,10.041881,0.3776853
168,1437144621357,1.6962919,10.011354,0.44651863
169,1437144621377,1.8471266,9.987412,0.41240123
170,1437144621397,1.8495208,9.978435,0.38486794
171,1437144621418,1.769315,9.961076,0.34596214
172,1437144621435,1.6944963,9.990405,0.4177882
173,1437144621456,1.7776948,10.006566,0.41180268
174,1437144621477,1.7196354,9.993398,0.4141969
175,1437144621498,1.7962499,10.00477,0.39743748
176,1437144621520,1.7537527,9.98442,0.38965634
177,1437144621536,1.6711528,9.999982,0.34715924
178,1437144621557,1.7381904,10.009559,0.39025488
179,1437144621577,1.7328035,9.985617,0.39803603
180,1437144621601,1.8818425,9.96347,0.4369418
181,1437144621617,1.8309658,9.920375,0.41240123
182,1437144621634,1.7154455,9.980828,0.39444473
183,1437144621657,1.7256209,10.0508585,0.39085343
184,1437144621675,1.7537527,10.060435,0.42197806
185,1437144621703,1.8393455,9.954493,0.4429273
186,1437144621765,1.8171991,9.926959,0.41240123
187,1437144621766,1.7729063,9.935339,0.40162733
188,1437144621767,1.7699136,9.982025,0.40342298
189,1437144621781,1.8022354,10.029311,0.40162733
190,1437144621796,1.8477252,9.985018,0.4369418
191,1437144621823,1.7537527,9.978435,0.37469256
192,1437144621836,1.8986019,9.972448,0.3645172
193,1437144621866,1.7363948,9.973646,0.42916065
194,1437144621875,1.6603789,10.05864,0.40821138
195,1437144621898,1.7609353,10.013748,0.3609259
196,1437144621921,1.8411411,9.982624,0.37828386
197,1437144621935,1.7878702,9.965864,0.36511576
198,1437144621956,1.6867151,9.9790325,0.39025488
199,1437144621976,1.8064252,10.017939,0.40222588
200,1437144621998,1.8626889,10.010756,0.36631286
201,1437144622018,1.7764976,9.972448,0.34476504
202,1437144622035,1.7681179,9.985617,0.33399114
203,1437144622058,1.8201919,10.02153,0.3705027
204,1437144622078,1.7890673,9.985617,0.35913026
205,1437144622098,1.7818847,9.983223,0.39743748
206,1437144622118,1.6980876,9.9951935,0.35553896
207,1437144622138,1.7549498,10.010158,0.3405752
208,1437144622156,1.8112136,9.988609,0.3597288
209,1437144622178,1.869273,9.964667,0.38845924
210,1437144622198,1.7890673,9.9712515,0.3788824
211,1437144622216,1.6747441,10.010756,0.36272156
212,1437144622238,1.6759412,10.030508,0.3226187
213,1437144622257,1.8028339,10.067019,0.29747957
214,1437144622278,1.821389,10.061633,0.27114335
215,1437144622298,1.6663644,10.067019,0.108936176
216,1437144622318,1.7842789,10.142437,0.23104046
217,1437144622338,2.0308816,10.005967,0.52852005
218,1437144622358,1.8890251,9.979631,0.40162733
219,1437144622376,1.9117701,10.064626,0.350152
220,1437144622397,1.7896658,10.214862,-0.089782566
221,1437144622426,1.6436194,11.432313,-1.4850036
222,1437144622481,0.46507367,11.398794,-1.567005
223,1437144622482,0.86011696,10.822391,-1.252766
224,1437144622483,1.3874398,11.086949,-1.977012
225,1437144622499,1.3108255,9.792884,-3.549404
226,1437144622516,-7.152079,8.532336,-4.614824
227,1437144622537,-12.879009,8.506598,-8.107366
228,1437144622556,-0.2124854,8.822035,-2.4642322
229,1437144622576,5.00867,10.208876,-1.697489
230,1437144622598,6.779781,8.504205,-6.8246717
231,1437144622617,14.912285,6.9461775,-1.8022354
232,1437144622636,17.207129,7.3537903,2.1511903
233,1437144622661,11.880029,6.491279,0.47465047
234,1437144622679,-1.168969,6.618172,-5.879561
235,1437144622696,-2.9047651,15.454572,1.6340426
236,1437144622719,-2.9269116,16.077663,-1.3509283
237,1437144622739,4.396353,7.2472486,-0.7493851
238,1437144622758,5.691616,9.552865,1.5310919
239,1437144622778,2.12246,11.43351,-0.17058687
240,1437144622799,1.2791022,10.296863,-0.10055647
241,1437144622819,2.0201077,9.711481,-0.60693014
242,1437144622839,1.4526819,10.303447,-2.191293
243,1437144622859,1.299453,10.207081,-2.6839
244,1437144622879,1.8219875,10.085575,-1.7298107
245,1437144622896,1.6059108,10.1621895,-1.3329718
246,1437144622916,1.584363,10.036493,-1.9991584
247,1437144622939,2.4331074,9.977237,-1.4688427
248,1437144622956,2.110489,9.964069,-1.7345991
249,1437144622984,1.7657237,9.829993,-1.543063
250,1437144622995,1.5089456,9.77792,-1.6118963
251,1437144623016,1.3018472,9.90601,-1.8124107
252,1437144623042,1.4921862,10.100538,-1.7884687
253,1437144623058,2.1571758,10.059238,-1.638831
254,1437144623076,2.4103625,9.837176,-1.0085574
255,1437144623097,1.8088194,10.092757,-0.7272388
256,1437144623117,1.6885108,10.136452,-1.4413095
257,1437144623138,2.3277626,9.739613,-1.5071499
258,1437144623158,1.9722236,10.076596,-1.1384429
259,1437144623245,1.3066356,10.286089,-1.4449008
260,1437144623246,1.1827357,10.195109,-1.4359225
261,1437144623247,0.55126494,9.874885,-1.702876
262,1437144623248,0.78888947,10.022128,-2.2092497
263,1437144623256,1.4490906,9.841366,-1.7501614
264,1437144623280,1.4610616,10.339958,-1.3455414
265,1437144623296,1.7130513,10.020931,-0.6183026
266,1437144623317,2.4893713,9.724648,-0.08379706
267,1437144623350,2.4109612,10.19451,0.11192893
268,1437144623357,1.1366472,10.503363,-0.25617957
269,1437144623378,0.65301853,10.207081,-0.2633622
270,1437144623396,1.5975311,11.004948,2.3247697
271,1437144623420,0.15861586,10.841544,2.0638018
272,1437144623437,1.2635399,12.323555,2.2403743
273,1437144623459,0.3716998,13.2429285,1.4251486
274,1437144623479,-0.5746084,14.775217,-0.7266402
275,1437144623499,-0.33039984,15.45577,-2.3127987
276,1437144623519,-0.2789245,14.159907,-4.8225207
277,1437144623539,-2.1015105,12.0727625,-6.0746884
278,1437144623559,0.044891283,10.153211,-6.233304
279,1437144623579,5.3318872,10.9426985,-5.2516813
280,1437144623597,1.4508862,10.890026,-5.8226986
281,1437144623622,-6.0597243,7.704541,-11.939884
282,1437144623642,-0.83617496,8.231864,-10.784083
283,1437144623661,3.7948096,10.4644575,-8.6257105
284,1437144623676,3.7924154,11.339538,-6.882133
285,1437144623701,1.2276269,9.5013895,-6.079477
286,1437144623718,1.1486182,7.93618,-5.4408236
287,1437144623737,1.9201498,7.3448124,-4.563947
288,1437144623757,1.2868834,7.1826053,-4.357447
289,1437144623778,-0.1592144,7.2113357,-4.441244
290,1437144623801,-0.17357962,7.864354,-4.685453
291,1437144623822,1.3575124,9.44752,-5.3486466
292,1437144623841,3.7978024,10.600926,-5.553351
293,1437144623858,6.1596823,11.964424,-6.084265
294,1437144623880,8.100781,12.237962,-6.194997
295,1437144623959,10.893019,11.079767,-5.6658783
296,1437144623960,12.10269,9.804854,-6.683414
297,1437144623961,12.276868,9.704897,-7.1754227
298,1437144623962,12.333132,9.349358,-5.3648076
299,1437144623978,10.939108,9.784504,-3.5470097
300,1437144624022,8.717887,10.198701,-3.205836
301,1437144624023,6.4487824,8.337808,-2.3953989
302,1437144624037,4.7500963,6.779781,-1.816002
303,1437144624097,3.3662477,7.632715,8.043321
304,1437144624109,0.27234045,18.92377,1.2779051
305,1437144624110,-1.489792,17.715895,0.5734113
306,1437144624118,-0.049081136,3.1358056,-0.18495208
307,1437144624139,4.2880154,5.868787,-4.335301
308,1437144624158,5.0254292,13.689446,-1.9506758
309,1437144624180,1.1402385,11.164762,-1.9129672
310,1437144624198,-2.767697,9.1590185,-3.447052
311,1437144624220,1.9500773,10.473435,-0.17657238
312,1437144624249,3.5093012,10.66557,-0.4842273
313,1437144624261,3.5392287,10.672752,0.0724246
314,1437144624280,2.4911668,10.02572,-0.30645782
315,1437144624300,2.4911668,10.12448,-0.39085343
316,1437144624320,2.0027497,9.919776,-1.1246762
317,1437144624340,1.9500773,10.056845,-1.5693992
318,1437144624360,2.1745336,10.00896,-1.5520413
319,1437144624384,0.8415619,9.654019,-1.0803835
320,1437144624400,-0.3453636,9.549872,0.17357962
321,1437144624420,-0.11192893,9.922769,0.7038953
322,1437144624438,-0.5177461,9.696517,-0.16160862
323,1437144624458,0.49679685,10.282497,-1.6394296
324,1437144624480,2.4091654,9.018359,-0.9283517
325,1437144624498,3.0244753,9.033323,-1.3946224
326,1437144624518,3.2914288,9.737817,-1.5496471
327,1437144624540,2.5139117,9.778519,-2.4899697
328,1437144624559,4.671686,9.244612,-0.8182184
329,1437144624580,2.5767596,9.840169,-1.9506758
330,1437144624598,5.81372,9.552865,-1.8674773
331,1437144624620,4.478953,12.366651,-0.7026982
332,1437144624729,3.9971197,12.347497,-0.7338228
333,1437144624730,4.593276,11.505336,-0.78529817
334,1437144624731,5.2379146,12.385205,-0.65780693
335,1437144624732,4.1838675,17.279552,-0.28311434
336,1437144624733,1.6053122,19.608511,0.7374141
337,1437144624744,1.7597382,19.608511,1.1498153
338,1437144624757,-1.0881647,10.093954,1.9015948
339,1437144624778,-1.8950106,0.6183026,-0.53570265
340,1437144624811,-9.369708,-11.38383,5.5563436
341,1437144624818,-15.544354,-9.153631,-3.6224272
342,1437144624838,-12.058995,2.9879637,-3.4237084
343,1437144624861,-5.2516813,5.722142,0.9091981
344,1437144624879,3.6978445,8.331821,1.9596541
345,1437144624901,10.181941,11.347918,2.7688942
346,1437144624918,11.472416,9.476251,2.147599
347,1437144624939,12.370241,10.705673,-5.522825
348,1437144624958,17.976265,15.811308,-9.011775
349,1437144624978,19.607914,13.63438,-1.0941502
350,1437144625001,17.930775,12.447454,1.9847932
351,1437144625021,13.251906,12.51928,-3.5302503
352,1437144625041,6.5379663,11.80521,-4.497508
353,1437144625059,1.9237411,11.055226,-0.6799533
354,1437144625078,3.7343562,10.725425,0.3172317
355,1437144625099,2.4708161,10.689512,0.66020113
356,1437144625118,5.204396,8.188768,-6.18961
357,1437144625141,7.626131,18.739416,15.206174
358,1437144625161,-13.4661875,19.585169,3.7187939
359,1437144625179,-10.845135,11.6825075,-11.680712
360,1437144625201,-0.004189853,18.038515,6.911462
361,1437144625219,4.8985367,19.608511,5.9519854
362,1437144625239,0.6488287,0.90021986,-2.9239187
363,1437144625258,7.57286,9.306861,0.6536171
364,1437144625281,8.348581,8.5700445,-0.84216046
365,1437144625301,5.853823,8.661623,-1.6250644
366,1437144625347,3.9839516,10.482413,-1.1905168
367,1437144625348,2.4408886,10.5291,-1.8016368
368,1437144625368,4.016872,7.836222,-1.4975731
369,1437144625440,7.0784574,8.746018,-1.3120226
370,1437144625441,3.6433764,11.307815,-0.7380127
371,1437144625442,4.6782703,13.947422,0.12270284
372,1437144625443,2.618658,14.366407,-0.09636662
373,1437144625479,5.0146556,17.463905,0.12868834
374,1437144625480,1.1324574,19.608511,-0.05865794
375,1437144625498,0.82719666,19.608511,1.3700819
376,1437144625518,-0.12030864,18.534712,3.8259344
377,1437144625551,3.1256304,2.0207062,-2.1057005
378,1437144625559,-2.2098482,-3.469797,2.6396074
379,1437144625579,-17.722479,-9.094974,-1.1887212
380,1437144625603,-18.20491,-0.8870517,-3.7295678
381,1437144625619,-7.800309,3.071761,0.16101007
382,1437144625642,1.3467385,2.8736405,-1.6627731
383,1437144625661,5.3079453,5.0038815,-2.1284454
384,1437144625680,8.665813,6.3524156,-2.5983074
385,1437144625698,14.307151,8.901642,-2.4289176
386,1437144625719,19.607914,13.676877,-2.2391772
387,1437144625741,14.197616,13.554773,-3.5170822
388,1437144625759,8.793902,13.470377,-5.5264163
389,1437144625781,12.402563,13.596671,-5.0930657
390,1437144625801,18.32103,14.756063,-2.7263973
391,1437144625825,16.70614,12.931084,-2.6042929
392,1437144625842,9.93474,11.015722,-4.31076
393,1437144625862,7.4788876,11.057022,-3.13401
394,1437144625879,6.3422403,9.685743,-1.2587515
395,1437144625901,6.035184,7.5920134,2.1865046
396,1437144625919,18.66819,14.901511,-4.1904516
397,1437144625939,-13.944429,12.346299,-5.2008047
398,1437144625960,-14.523228,12.112267,-3.4440591
399,1437144625979,-3.1992521,15.43063,3.7954082
400,1437144626002,11.602302,19.608511,10.867282
401,1437144626022,-11.256938,14.355634,-5.554548
402,1437144626041,4.4687777,-5.7909756,-2.557606
403,1437144626060,19.422363,9.425373,3.2890346
404,1437144626079,-0.350152,13.429077,-2.2649148
405,1437144626106,3.196858,10.955867,-2.2349873
406,1437144626167,5.1888337,8.501212,-0.5674258
407,1437144626169,5.563526,6.773795,-1.2467805
408,1437144626170,7.6165543,9.169194,0.9295488
409,1437144626186,3.6355953,15.40609,2.7515364
410,1437144626199,1.9129672,19.608511,-1.0121487
411,1437144626220,-0.6865373,19.608511,-1.8429368
412,1437144626239,1.7423803,19.608511,0.6278794
413,1437144626265,-0.7517793,15.164873,2.1978772
414,1437144626280,-4.502895,3.8618474,4.5364137
415,1437144626300,-9.022549,-9.471462,2.9825768
