id,attr_time,attr_x,attr_y,attr_z
1,1436540238008,-8.86806,-3.23291,3.19106
2,1436540238028,-8.82896,-3.34001,3.08458
3,1436540238047,-8.84425,-3.31171,3.12132
4,1436540238068,-8.82452,-3.20363,3.18535
5,1436540238087,-8.82587,-3.17242,3.21057
6,1436540238107,-8.86946,-3.16325,3.15396
7,1436540238127,-8.78191,-3.16194,3.15649
8,1436540238147,-8.70757,-3.22542,3.14526
9,1436540238167,-8.75972,-3.23479,3.14799
10,1436540238206,-8.90276,-3.23883,3.1479
11,1436540238225,-8.89169,-3.28723,3.1226
12,1436540238245,-8.78142,-3.34196,3.12158
13,1436540238265,-8.69429,-3.23804,3.11421
14,1436540238286,-8.8266,-3.1647,3.14944
15,1436540238305,-8.87424,-3.10986,3.22513
16,1436540238325,-8.80476,-3.19556,3.15985
17,1436540238344,-8.71202,-3.27293,3.06844
18,1436540238364,-8.76753,-3.18652,3.15303
19,1436540238384,-8.87184,-3.14301,3.21408
20,1436540238404,-8.86887,-3.15288,3.21915
21,1436540238423,-8.78627,-3.28185,3.12163
22,1436540238442,-8.76179,-3.34633,3.1136
23,1436540238463,-8.81386,-3.3046,3.15012
24,1436540238482,-8.84508,-3.25751,3.23396
25,1436540238503,-8.76324,-3.21695,3.17633
26,1436540238523,-8.7251,-3.26004,3.12114
27,1436540238540,-8.66318,-3.18982,3.18359
28,1436540238562,-8.88208,-3.21036,3.2343
29,1436540238581,-8.95686,-3.24594,3.19002
30,1436540238601,-8.85828,-3.32837,3.12653
31,1436540238621,-8.71913,-3.26688,3.0713
32,1436540238640,-8.67139,-3.11188,3.15274
33,1436540238660,-8.74144,-3.11792,3.15717
34,1436540238680,-8.93532,-3.23872,3.15485
35,1436540238700,-8.91382,-3.37616,3.11887
36,1436540238720,-8.7524,-3.37756,3.07478
37,1436540238739,-8.71989,-3.22763,3.06624
38,1436540238759,-8.8057,-3.07707,3.21805
39,1436540238779,-8.88179,-3.11148,3.23999
40,1436540238799,-8.82283,-3.2363,3.11241
41,1436540238818,-8.7224,-3.34895,3.02597
42,1436540238838,-8.75229,-3.25066,3.05724
43,1436540238857,-8.92306,-3.17786,3.16512
44,1436540238878,-8.97197,-3.16272,3.19383
45,1436540238897,-8.8609,-3.25761,3.06422
46,1436540238918,-8.68535,-3.23599,3.02498
47,1436540238937,-8.66367,-3.12466,3.0542
48,1436540238957,-8.82793,-3.05885,3.16045
49,1436540238977,-8.94887,-3.11357,3.2001
50,1436540238997,-8.93916,-3.25635,3.12483
51,1436540239016,-8.82632,-3.29369,3.09547
52,1436540239034,-8.8156,-3.32256,3.11594
53,1436540239056,-8.83122,-3.18376,3.17354
54,1436540239075,-8.85109,-3.18495,3.20563
55,1436540239095,-8.76714,-3.23427,3.10818
56,1436540239115,-8.68684,-3.30408,3.08907
57,1436540239135,-8.65199,-3.30685,3.08856
58,1436540239154,-8.78049,-3.26212,3.14241
59,1436540239174,-8.86798,-3.24722,3.17294
60,1436540239194,-8.81537,-3.25729,3.11543
61,1436540239214,-8.76021,-3.28384,3.09026
62,1436540239234,-8.83614,-3.19646,3.15173
63,1436540239273,-8.88718,-3.11209,3.18973
64,1436540239294,-8.89654,-3.18459,3.08118
65,1436540239313,-8.89307,-3.25073,3.07237
66,1436540239333,-8.79155,-3.18889,3.04968
67,1436540239351,-8.6958,-3.17577,3.07219
68,1436540239372,-8.80852,-3.14278,3.14223
69,1436540239391,-8.88292,-3.20599,3.218
70,1436540239412,-8.82584,-3.37111,3.17801
71,1436540239431,-8.78922,-3.37291,3.10391
72,1436540239451,-8.77614,-3.29507,3.08809
73,1436540239471,-8.81969,-3.20079,3.11591
74,1436540239490,-8.89421,-3.13483,3.16031
75,1436540239511,-8.85329,-3.20053,3.04118
76,1436540239530,-8.77161,-3.20424,3.03061
77,1436540239550,-8.73544,-3.13907,3.06674
78,1436540239569,-8.93043,-3.11752,3.10352
79,1436540239590,-8.98093,-3.05867,3.12381
80,1436540239609,-8.84802,-3.16354,3.09059
81,1436540239629,-8.73315,-3.26202,3.03409
82,1436540239648,-8.78628,-3.22968,3.07611
83,1436540239666,-8.87077,-3.15651,3.12544
84,1436540239688,-8.80367,-3.15385,3.0983
85,1436540239707,-8.71156,-3.29349,3.05574
86,1436540239728,-8.72945,-3.31944,3.10475
87,1436540239747,-8.80214,-3.1765,3.19116
88,1436540239768,-8.92619,-3.21939,3.2386
89,1436540239787,-8.97191,-3.31679,3.18407
90,1436540239807,-8.90141,-3.40852,3.18152
91,1436540239826,-8.86653,-3.38805,3.19235
92,1436540239846,-8.8515,-3.26715,3.13396
93,1436540239866,-8.90657,-3.2361,3.10056
94,1436540239886,-8.86813,-3.2249,2.99718
95,1436540239906,-8.74017,-3.16382,2.82985
96,1436540239925,-8.69893,-3.03056,2.65364
97,1436540239946,-8.65961,-2.86865,2.58841
98,1436540239965,-8.73666,-2.86018,2.62451
99,1436540239983,-8.82547,-2.92885,2.58643
100,1436540240005,-8.8877,-3.05945,2.89642
101,1436540240024,-8.90408,-3.25282,2.83464
102,1436540240044,-8.71404,-3.27795,2.94994
103,1436540240064,-8.81587,-3.52858,3.12633
104,1436540240084,-8.77124,-3.25088,3.44157
105,1436540240103,-8.89246,-3.29086,3.41164
106,1436540240124,-8.85504,-3.5327,3.23849
107,1436540240143,-8.72864,-3.40356,3.31899
108,1436540240161,-8.84091,-3.23878,3.44115
109,1436540240183,-8.83354,-3.26042,3.37393
110,1436540240201,-8.71216,-3.2504,3.27202
111,1436540240222,-8.64983,-3.16959,3.33733
112,1436540240242,-8.66516,-3.24078,3.37727
113,1436540240261,-8.70308,-3.22754,3.36943
114,1436540240300,-8.74234,-3.67126,2.92175
115,1436540240321,-8.73697,-3.34166,2.89619
116,1436540240340,-8.78999,-3.04834,2.90195
117,1436540240361,-8.71256,-3.21765,2.94942
118,1436540240380,-8.63492,-3.18384,3.10881
119,1436540240400,-8.77556,-3.25208,3.16502
120,1436540240420,-8.80579,-3.32416,3.35236
121,1436540240439,-8.81003,-3.52571,3.44713
122,1436540240459,-8.87537,-3.52267,3.3282
123,1436540240478,-8.8441,-3.94485,3.30321
124,1436540240498,-9.01393,-4.31157,3.44801
125,1436540240518,-9.07822,-4.63423,3.57578
126,1436540240539,-8.72525,-4.72948,3.75252
127,1436540240558,-8.18455,-4.90794,3.67671
128,1436540240578,-7.55862,-4.94124,3.74458
129,1436540240596,-6.92273,-4.71992,3.79384
130,1436540240617,-6.32803,-4.4512,3.77023
131,1436540240636,-5.88557,-4.00279,3.60704
132,1436540240657,-5.74709,-3.75516,3.46835
133,1436540240676,-5.75465,-3.59622,3.38994
134,1436540240696,-5.85255,-3.63518,3.29481
135,1436540240717,-6.02287,-3.6994,3.17482
136,1436540240736,-6.27985,-3.76741,3.27663
137,1436540240756,-6.70163,-3.72391,3.6535
138,1436540240776,-6.89313,-3.60698,3.87373
139,1436540240793,-6.90585,-3.42827,4.01094
140,1436540240815,-7.22655,-3.21234,4.24348
141,1436540240833,-7.89401,-3.57983,4.241
142,1436540240854,-8.10565,-4.02087,3.9738
143,1436540240874,-7.77092,-3.80371,3.76442
144,1436540240894,-7.67227,-3.74023,3.68242
145,1436540240914,-7.74985,-3.55516,3.54607
146,1436540240933,-8.26283,-3.42091,3.3553
147,1436540240954,-8.64488,-3.28841,3.08168
148,1436540240973,-8.3376,-2.9456,3.24785
149,1436540240992,-7.73207,-2.52805,3.33377
150,1436540241011,-7.60677,-2.30219,3.25546
151,1436540241032,-8.18953,-2.53694,2.98756
152,1436540241052,-9.01282,-2.60327,2.81389
153,1436540241072,-9.72668,-2.55707,2.70079
154,1436540241091,-10.0443,-1.61633,4.00963
155,1436540241110,-10.4615,-1.41568,4.30493
156,1436540241131,-11.413,-2.04173,2.98935
157,1436540241150,-14.5773,-2.39658,3.19208
158,1436540241170,-16.5296,-3.18379,4.21873
159,1436540241190,-12.9972,-5.49947,1.15359
160,1436540241210,-9.72754,-6.22409,-1.06239
161,1436540241230,-10.0491,-5.20618,-1.10344
162,1436540241250,-10.6917,-4.27341,0.505661
163,1436540241269,-9.67311,-3.92256,1.79425
164,1436540241287,-8.748,-4.58002,1.79587
165,1436540241309,-8.11249,-4.86313,1.64792
166,1436540241348,-7.38512,-4.52853,2.10507
167,1436540241369,-6.54242,-3.89415,2.55344
168,1436540241388,-5.97736,-3.26759,2.6216
169,1436540241408,-5.97641,-2.69862,3.0649
170,1436540241426,-6.38536,-2.81229,3.22775
171,1436540241447,-6.32535,-3.32481,3.3257
172,1436540241467,-6.13852,-3.4503,3.33296
173,1436540241487,-6.46147,-3.84972,2.57661
174,1436540241506,-6.52742,-4.00967,2.04173
175,1436540241526,-6.34245,-3.44803,2.19025
176,1436540241546,-6.85237,-3.40482,2.3342
177,1436540241566,-7.33334,-3.58153,2.27614
178,1436540241585,-7.46739,-3.62468,2.15945
179,1436540241604,-7.41388,-3.49043,2.04187
180,1436540241625,-7.27521,-3.42627,1.84843
181,1436540241643,-8.03592,-3.50636,1.88664
182,1436540241665,-9.85709,-3.31924,2.41736
183,1436540241684,-11.4637,-3.06546,2.98419
184,1436540241704,-13.4461,-3.26985,3.03882
185,1436540241724,-17.3406,-5.11134,2.65782
186,1436540241744,-19.5087,-6.9054,2.59117
187,1436540241763,-15.5007,-5.50307,3.89722
188,1436540241783,-10.0442,-4.64694,5.90135
189,1436540241803,-8.16802,-3.27576,7.37569
190,1436540241821,-10.1457,-2.42143,7.34045
191,1436540241842,-9.80814,-2.34389,5.4819
192,1436540241862,-7.94896,-2.29201,3.5006
193,1436540241882,-7.3831,-1.92911,3.0899
194,1436540241902,-7.14439,-1.35446,3.51234
195,1436540241919,-6.36552,-0.498352,3.9595
196,1436540241941,-5.56235,-0.32901,2.99554
197,1436540241960,-5.49561,-1.60439,2.0519
198,1436540241981,-5.80357,-3.15836,1.72211
199,1436540242001,-5.40593,-3.83861,2.01569
200,1436540242020,-4.56084,-4.3338,1.69347
201,1436540242119,-4.24126,-4.98775,1.15027
202,1436540242120,-4.57033,-4.58058,1.51567
203,1436540242121,-5.15613,-3.61351,2.19185
204,1436540242122,-5.72018,-3.41411,2.48752
205,1436540242123,-6.43349,-3.50726,2.66508
206,1436540242138,-7.32469,-3.47873,2.94316
207,1436540242159,-8.20364,-3.53409,3.37567
208,1436540242178,-8.55093,-3.49179,3.55219
209,1436540242198,-9.04047,-3.18584,3.30273
210,1436540242217,-11.6356,-3.59523,3.45287
211,1436540242236,-14.0974,-3.59698,4.35201
212,1436540242258,-15.46,-3.01057,4.53397
213,1436540242277,-17.2819,-3.05653,4.01863
214,1436540242297,-18.2108,-2.21889,4.38348
215,1436540242317,-14.7228,-0.424561,4.87202
216,1436540242337,-11.8545,-1.87885,2.17162
217,1436540242356,-12.0195,-2.6752,1.26526
218,1436540242376,-11.8323,-1.77635,2.38718
219,1436540242414,-10.0307,-1.92712,2.668
220,1436540242436,-8.25131,-3.49046,2.49332
221,1436540242454,-7.18404,-4.55554,2.16399
222,1436540242475,-6.45975,-4.23976,1.94566
223,1436540242494,-5.84593,-3.88315,1.72725
224,1436540242514,-5.32028,-3.75925,1.46504
225,1436540242534,-5.0639,-3.28072,1.43192
226,1436540242553,-5.06499,-2.57771,1.75243
227,1436540242573,-4.9603,-1.88181,2.2282
228,1436540242593,-4.94809,-1.51123,2.4109
229,1436540242613,-5.10489,-1.55618,2.33974
230,1436540242633,-5.17281,-1.89853,2.0257
231,1436540242652,-5.39964,-2.24918,1.92018
232,1436540242673,-6.08481,-2.67217,1.76538
233,1436540242692,-6.72697,-3.19353,1.7457
234,1436540242712,-7.27386,-3.64033,1.73987
235,1436540242731,-7.85947,-3.89001,1.61159
236,1436540242751,-9.35487,-4.28665,1.67523
237,1436540242771,-11.5113,-4.55472,2.40878
238,1436540242791,-13.0594,-4.444,3.38956
239,1436540242811,-15.7989,-5.17374,3.9391
240,1436540242830,-19.4073,-6.49124,5.73749
241,1436540242850,-18.779,-5.02412,8.24442
242,1436540242870,-13.0163,-3.64919,8.90532
243,1436540242890,-8.72023,-2.94772,7.83719
244,1436540242910,-9.99774,-1.0175,7.13249
245,1436540242929,-10.6219,0.30806,6.36113
246,1436540242948,-8.9673,0.162979,4.89461
247,1436540242969,-7.82492,-0.348312,3.70009
248,1436540242989,-6.87976,-1.34215,2.56561
249,1436540243008,-5.98532,-1.88327,2.18048
250,1436540243029,-5.16779,-2.13841,3.49319
251,1436540243046,-4.39542,-1.72093,3.46173
252,1436540243068,-3.94251,-1.4191,3.77072
253,1436540243087,-4.08191,-1.4146,3.35864
254,1436540243107,-4.17574,-2.63443,2.45184
255,1436540243127,-4.10486,-4.0979,1.67728
256,1436540243147,-4.51686,-4.9059,1.19818
257,1436540243166,-5.34776,-4.63135,1.12521
258,1436540243186,-6.15034,-3.96179,1.22591
259,1436540243206,-6.9619,-3.6559,1.64241
260,1436540243224,-7.68288,-3.44138,2.24408
261,1436540243245,-8.09126,-3.03203,2.85208
262,1436540243265,-8.53432,-3.03174,3.28
263,1436540243285,-9.39107,-3.17976,3.34334
264,1436540243304,-11.1089,-3.3121,3.56543
265,1436540243325,-12.7099,-3.20317,4.18379
266,1436540243344,-12.8805,-2.54655,4.33225
267,1436540243363,-13.9727,-2.25038,3.57175
268,1436540243384,-17.6022,-2.46123,3.34007
269,1436540243403,-18.4356,-1.70885,3.90628
270,1436540243443,-13.3512,-1.90359,3.92844
271,1436540243463,-10.3755,-2.70018,3.01865
272,1436540243482,-10.5788,-3.23247,2.30522
273,1436540243502,-10.0002,-3.25928,2.48196
274,1436540243522,-8.24925,-3.61891,3.04726
275,1436540243540,-6.51837,-4.4088,3.09262
276,1436540243561,-5.39621,-4.35788,2.84196
277,1436540243580,-4.74341,-3.51187,2.74573
278,1436540243601,-4.0385,-2.84213,2.64272
279,1436540243621,-3.45692,-2.57097,2.53542
280,1436540243640,-3.34702,-2.47479,2.25604
281,1436540243660,-3.53648,-2.45612,1.96783
282,1436540243680,-4.20947,-2.58817,1.93875
283,1436540243700,-5.16489,-2.9436,2.19916
284,1436540243720,-5.7718,-3.14508,2.6489
285,1436540243740,-6.5936,-3.42964,2.96431
286,1436540243758,-8.3494,-3.93854,3.16017
287,1436540243779,-10.1299,-4.09879,3.19026
288,1436540243799,-11.6473,-4.32321,2.90297
289,1436540243819,-13.8501,-4.61107,2.57709
290,1436540243837,-15.6408,-4.65076,2.61917
291,1436540243857,-17.2326,-5.1356,2.78539
292,1436540243877,-19.4529,-5.39169,4.43929
293,1436540243896,-17.0428,-3.8,6.5795
294,1436540243918,-13.5464,-3.28597,6.6465
295,1436540243937,-12.0268,-3.49374,6.33325
296,1436540243957,-10.4646,-3.02985,6.25903
297,1436540243976,-9.03102,-2.0488,5.56889
298,1436540243997,-7.15559,-2.44966,3.33821
299,1436540244015,-5.62816,-1.30486,0.745239
300,1436540244036,-4.6962,-1.06126,0.64473
301,1436540244056,-4.22896,5.08559,2.4603
302,1436540244074,-3.65443,5.12012,3.3524
303,1436540244095,-3.6712,4.45215,3.80833
304,1436540244115,-5.08942,1.74771,3.88576
305,1436540244134,-5.95474,-0.396774,3.79088
306,1436540244155,-6.4527,-2.44868,3.32809
307,1436540244173,-6.808,-4.00594,3.03989
308,1436540244194,-7.12204,-5.1393,2.23293
309,1436540244213,-7.21687,-5.51877,1.64722
310,1436540244233,-7.30377,-4.55467,1.58281
311,1436540244253,-7.45512,-3.26472,1.76973
312,1436540244273,-7.45717,-2.10782,1.91222
313,1436540244293,-8.10574,-1.30812,1.87459
314,1436540244313,-10.1142,-1.26027,1.88184
315,1436540244333,-12.3783,-1.95601,2.54367
316,1436540244350,-13.7387,-3.09137,3.03908
317,1436540244372,-14.4705,-4.49493,2.86462
318,1436540244391,-15.1574,-5.02365,1.88936
319,1436540244411,-16.1426,-5.05263,1.55484
320,1436540244431,-14.8926,-4.31128,2.37117
321,1436540244451,-12.2031,-4.02368,2.85341
322,1436540244489,-10.5908,-4.05882,2.65469
323,1436540244510,-10.0816,-3.66603,2.66438
324,1436540244530,-9.849,-2.9669,3.63625
325,1436540244550,-8.96591,-2.6649,4.50983
326,1436540244570,-7.41058,-2.70702,4.40858
327,1436540244589,-5.95589,-2.91615,3.73187
328,1436540244609,-5.01817,-2.81865,3.42639
329,1436540244629,-4.58948,-2.50122,3.70647
330,1436540244648,-4.29419,-3.15749,3.58553
331,1436540244667,-4.10092,-4.12355,3.12753
332,1436540244688,-4.51967,-4.13795,2.98863
333,1436540244707,-5.48264,-3.64143,3.27339
334,1436540244728,-6.56786,-3.50194,3.59329
335,1436540244748,-7.38405,-3.47861,3.7533
336,1436540244767,-7.8503,-3.32669,3.86383
337,1436540244787,-7.45232,-3.10718,3.61879
338,1436540244807,-6.95834,-3.06404,2.87941
339,1436540244826,-7.88594,-3.11589,2.33418
340,1436540244845,-9.52945,-3.24748,2.4828
341,1436540244866,-11.0689,-3.50381,2.8589
342,1436540244885,-12.6022,-3.92207,2.83275
343,1436540244905,-14.2695,-4.25572,2.27026
344,1436540244926,-17.4037,-5.13516,2.14552
345,1436540244945,-19.5224,-5.52423,2.9623
346,1436540244965,-17.7642,-4.82489,4.2464
347,1436540244984,-12.4868,-4.70938,4.68343
348,1436540245003,-9.43008,-4.61769,4.35493
349,1436540245023,-8.60706,-3.91434,3.12238
350,1436540245044,-8.53636,-0.320328,1.97186
351,1436540245063,-8.07343,4.7262,2.75645
352,1436540245083,-6.93033,5.19276,3.38055
353,1436540245103,-5.39224,5.05168,3.95816
354,1436540245123,-4.80917,4.05211,4.26202
355,1436540245143,-4.69545,1.82172,3.80502
356,1436540245163,-5.10533,-0.447617,3.01039
357,1436540245181,-5.47853,-2.89873,2.32056
358,1436540245200,-5.21516,-4.22072,1.72566
359,1436540245222,-5.5556,-5.83327,0.980927
360,1436540245241,-5.6297,-6.37581,0.496155
361,1436540245261,-5.87022,-5.22923,0.790451
362,1436540245281,-6.43381,-3.62787,1.63445
363,1436540245299,-6.47681,-2.53381,2.31688
364,1436540245320,-6.48334,-1.74965,2.39807
365,1436540245340,-7.89783,-1.44295,2.22844
366,1436540245360,-10.1295,-1.28256,2.32861
367,1436540245377,-12.7599,-1.27328,1.96635
368,1436540245399,-17.0572,-2.0426,1.56737
369,1436540245418,-19.5292,-3.81305,2.12935
370,1436540245439,-18.4622,-5.2796,3.01775
371,1436540245459,-12.8328,-5.54947,2.77821
372,1436540245477,-9.56091,-4.91902,1.18198
373,1436540245498,-8.86459,-3.89056,0.467896
374,1436540245537,-9.07124,-2.98872,1.84167
375,1436540245558,-8.84982,-3.00383,3.4774
376,1436540245578,-8.62013,-4.32709,4.60648
377,1436540245597,-8.02768,-4.6763,5.2158
378,1436540245616,-6.60963,-3.54538,5.00729
379,1436540245636,-5.44347,-2.94798,4.01132
380,1436540245656,-5.01602,-2.58742,2.90361
381,1436540245674,-4.97752,-1.8065,2.36822
382,1436540245696,-4.99272,-1.26007,2.2077
383,1436540245715,-4.96318,-1.50703,2.16241
384,1436540245735,-5.29987,-2.28648,2.06421
385,1436540245756,-5.89992,-2.70457,2.53761
386,1436540245775,-6.50891,-3.14433,3.0623
387,1436540245793,-7.50394,-3.78149,3.2449
388,1436540245815,-8.70357,-4.45418,2.90382
389,1436540245833,-10.1199,-5.03288,2.64186
390,1436540245854,-11.0786,-4.95111,2.35275
391,1436540245874,-12.6415,-5.20276,2.27133
392,1436540245893,-15.8763,-5.76131,2.84354
393,1436540245913,-19.3269,-5.47357,4.63585
394,1436540245933,-18.355,-4.19885,6.98254
395,1436540245953,-12.0494,-3.61537,7.56561
396,1436540245972,-7.80739,-3.42148,6.5759
397,1436540245993,-8.42453,-1.99886,6.13767
398,1436540246010,-9.25398,-1.33879,5.51463
399,1436540246031,-8.05878,-2.62465,2.92355
400,1436540246052,-7.67804,-2.42355,0.997818
401,1436540246071,-6.14418,-0.0699463,3.05402
402,1436540246091,-5.34258,4.40949,5.3571
403,1436540246109,-4.82642,2.688,4.63585
404,1436540246130,-5.00966,1.40338,3.73141
405,1436540246149,-5.46841,-0.953979,2.94507
406,1436540246170,-5.6368,-2.66846,2.99767
407,1436540246189,-6.61502,-4.09378,2.47276
408,1436540246210,-7.28349,-5.9222,1.79616
409,1436540246229,-7.26027,-5.29617,1.53217
410,1436540246249,-7.48633,-4.23547,1.68983
411,1436540246269,-7.67575,-2.82291,2.32344
412,1436540246289,-7.51407,-2.05843,2.71591
413,1436540246308,-7.99524,-1.65401,2.71814
414,1436540246327,-9.42584,-1.72089,2.78021
415,1436540246348,-10.9125,-1.98972,3.08133
416,1436540246367,-12.6635,-2.23877,3.16519
417,1436540246387,-14.7032,-2.35629,2.89697
418,1436540246407,-16.8784,-2.72833,2.67233
419,1436540246425,-17.3724,-3.03366,3.04985
420,1436540246447,-14.0601,-3.3019,3.45004
421,1436540246466,-10.686,-3.6274,3.00221
422,1436540246486,-9.01198,-4.21265,1.79492
423,1436540246505,-8.06104,-4.63942,1.19598
424,1436540246526,-7.63937,-4.48323,1.85921
425,1436540246565,-7.6143,-4.41092,3.3907
426,1436540246585,-6.99858,-3.84096,4.89397
427,1436540246603,-5.95895,-2.82962,5.63091
428,1436540246624,-4.94559,-2.2569,5.60329
429,1436540246643,-4.18455,-2.01152,5.02502
430,1436540246664,-3.79295,-1.6853,4.27164
431,1436540246684,-3.88915,-1.675,3.53665
432,1436540246704,-4.40912,-2.07294,3.00334
433,1436540246723,-5.0222,-2.54784,2.94255
434,1436540246743,-5.98177,-3.34602,3.10783
435,1436540246763,-7.19981,-3.78488,3.49347
436,1436540246783,-8.04402,-3.48633,3.97081
437,1436540246802,-8.41693,-3.07735,4.07576
438,1436540246822,-9.65842,-3.2594,3.94589
439,1436540246841,-11.4433,-3.52058,4.18867
440,1436540246861,-12.4299,-3.41061,4.6456
441,1436540246882,-13.6291,-3.66751,4.64673
442,1436540246901,-15.8928,-4.30032,4.04387
443,1436540246919,-19.1322,-6.15518,4.59273
444,1436540246941,-18.648,-6.38179,6.16698
445,1436540246960,-13.7952,-5.16241,6.42444
446,1436540246980,-10.4067,-5.5836,5.44093
447,1436540247000,-9.67203,-5.7088,4.41936
448,1436540247020,-9.30208,-3.07059,4.33174
449,1436540247039,-8.73109,0.527222,3.94142
450,1436540247059,-7.65143,0.771469,3.31854
451,1436540247079,-6.24216,1.13884,3.48637
452,1436540247099,-5.39404,1.43727,3.83514
453,1436540247119,-4.7372,0.533814,4.01518
454,1436540247137,-4.43263,-0.479156,4.12759
455,1436540247158,-4.4594,-1.24825,3.84538
456,1436540247178,-4.48378,-2.03401,3.25223
457,1436540247197,-4.64528,-2.41426,2.76366
458,1436540247217,-5.03894,-2.32086,2.39731
459,1436540247235,-5.27963,-2.24408,2.29076
