id,attr_time,attr_x,attr_y,attr_z
1,1436283864014,-2.8508956,9.240421,-1.7591397
2,1436283864132,-2.8245595,9.26197,-1.7711107
3,1436283864133,-2.818574,9.249998,-1.7681179
4,1436283864134,-2.8125885,9.20391,-1.7525556
5,1436283864135,-2.8502972,9.22067,-1.7477672
6,1436283864136,-2.9083564,9.214086,-1.7968484
7,1436283864137,-2.954445,9.202713,-1.8166006
8,1436283864150,-2.947861,9.181764,-1.8249803
9,1436283864170,-2.9418752,9.191938,-1.8028339
10,1436283864190,-2.9293058,9.190742,-1.816002
11,1436283864210,-2.9311013,9.206305,-1.8166006
12,1436283864236,-2.9179332,9.185953,-1.7980455
13,1436283864252,-2.8874073,9.212888,-1.7908629
14,1436283864273,-2.8532898,9.283517,-1.797447
15,1436283864291,-2.7976246,9.269751,-1.7717092
16,1436283864318,-2.7748797,9.227852,-1.7699136
17,1436283864333,-2.842516,9.248801,-1.7914615
18,1436283864353,-2.8892028,9.250597,-1.822586
19,1436283864373,-2.9167361,9.228451,-1.7992426
20,1436283864394,-2.8880057,9.167996,-1.762731
21,1436283864414,-2.885013,9.1590185,-1.7621324
22,1436283864434,-2.8820202,9.223063,-1.7848774
23,1436283864454,-2.8275523,9.257181,-1.8435353
24,1436283864474,-2.783858,9.263166,-1.8369513
25,1436283864494,-2.7844565,9.294889,-1.8680758
26,1436283864510,-2.7730842,9.227852,-1.827973
27,1436283864534,-2.8532898,9.1829605,-1.8237832
28,1436283864554,-2.96881,9.206305,-1.8189948
29,1436283864574,-3.004723,9.167398,-1.8363527
30,1436283864594,-2.983774,9.148843,-1.804031
31,1436283864611,-2.9269116,9.155427,-1.8112136
32,1436283864632,-2.9011738,9.235035,-1.8028339
33,1436283864653,-2.8939912,9.288305,-1.8070238
34,1436283864673,-2.8658595,9.306861,-1.809418
35,1436283864694,-2.8724434,9.223662,-1.8022354
36,1436283864727,-2.8939912,9.176975,-1.7579426
37,1436283864739,-2.9017725,9.178771,-1.7663223
38,1436283864751,-2.926313,9.207501,-1.7369933
39,1436283864770,-2.9514523,9.147646,-1.7645266
40,1436283864791,-3.0065188,9.126697,-1.7669208
41,1436283864826,-3.027468,9.119514,-1.7495629
42,1436283864838,-3.0184898,9.143456,-1.7770962
43,1436283864852,-2.996942,9.141062,-1.8016368
44,1436283864871,-2.9939492,9.165603,-1.8369513
45,1436283864891,-2.9741971,9.190144,-1.8644845
46,1436283864913,-2.9466639,9.141661,-1.8393455
47,1436283864931,-2.9179332,9.227253,-1.8435353
48,1436283864953,-2.8856115,9.252991,-1.8626889
49,1436283865000,-2.870648,9.241618,-1.8674773
50,1436283865001,-2.873042,9.289502,-1.8674773
51,1436283865039,-2.8550856,9.234436,-1.8273745
52,1436283865040,-2.8820202,9.285313,-1.7812861
53,1436283865065,-2.8125885,9.209895,-1.757344
54,1436283865072,-2.7431567,9.176376,-1.702876
55,1436283865091,-2.7269957,9.226056,-1.7304093
56,1436283865114,-2.783858,9.288904,-1.7902644
57,1436283865134,-2.8006175,9.285313,-1.7938557
58,1436283865154,-2.8383262,9.231443,-1.8303672
59,1436283865174,-2.8694508,9.169792,-1.7968484
60,1436283865194,-2.9131448,9.155427,-1.8166006
61,1436283865212,-3.004723,9.209895,-1.9129672
62,1436283865234,-3.067571,9.235633,-1.9267339
63,1436283865254,-3.0747535,9.163208,-1.8716671
64,1436283865272,-3.0334535,9.185953,-1.8740613
65,1436283865294,-3.0603883,9.19972,-1.8830396
66,1436283865314,-2.9855695,9.201516,-1.846528
67,1436283865333,-2.938284,9.185953,-1.7962499
68,1436283865352,-2.944868,9.190742,-1.7681179
69,1436283865375,-2.9580362,9.224859,-1.7782934
70,1436283865395,-2.918532,9.168595,-1.7561469
71,1436283865415,-2.9257145,9.118916,-1.6873137
72,1436283865433,-2.9753942,9.112331,-1.7004818
73,1436283865454,-3.0095115,9.137471,-1.7657237
74,1436283865472,-3.0202854,9.136273,-1.7794905
75,1436283865491,-3.0334535,9.144653,-1.8267759
76,1436283865512,-2.992752,9.177573,-1.857302
77,1436283865533,-2.9867666,9.190742,-1.8806454
78,1436283865554,-2.9682117,9.188946,-1.8974048
79,1436283865580,-2.9813797,9.163807,-1.8920178
80,1436283865594,-3.043629,9.193136,-1.8980033
81,1436283865612,-2.9712043,9.138069,-1.8806454
82,1436283865631,-2.9831753,9.157822,-1.8459295
83,1436283865653,-2.9813797,9.225458,-1.8722657
84,1436283865675,-2.9574378,9.150639,-1.8620903
85,1436283865693,-3.0190883,9.193734,-1.910573
86,1436283865711,-2.9951463,9.171588,-1.8405426
87,1436283865732,-2.9520507,9.219472,-1.839944
88,1436283865754,-2.9041667,9.251794,-1.8740613
89,1436283865775,-2.8389246,9.247005,-1.8788497
90,1436283865791,-2.830545,9.224859,-1.8686744
91,1436283865815,-2.8461072,9.205706,-1.8579005
92,1436283865834,-2.8646624,9.216479,-1.8154035
93,1436283865854,-2.8951883,9.212888,-1.8477252
94,1436283865875,-2.9765913,9.208099,-1.8710686
95,1436283865895,-2.947861,9.15423,-1.851915
96,1436283865913,-2.944868,9.1590185,-1.8441339
97,1436283865937,-2.9269116,9.199121,-1.8495208
98,1436283865952,-2.9376855,9.226655,-1.8579005
99,1436283865975,-2.9041667,9.19553,-1.8477252
100,1436283865997,-2.8820202,9.154829,-1.8070238
101,1436283866017,-2.8844144,9.20391,-1.8136078
102,1436283866044,-2.8921957,9.267356,-1.8112136
103,1436283866052,-2.8526914,9.26197,-1.7926586
104,1436283866074,-2.8514943,9.1829605,-1.7531542
105,1436283866095,-2.8502972,9.179369,-1.7381904
106,1436283866115,-2.8808231,9.212888,-1.7537527
107,1436283866135,-2.8646624,9.251195,-1.7633295
108,1436283866156,-2.8377275,9.221867,-1.785476
109,1436283866176,-2.8646624,9.22426,-1.8022354
110,1436283866194,-2.8933928,9.225458,-1.8166006
111,1436283866215,-2.902371,9.200917,-1.7914615
112,1436283866286,-2.9682117,9.204509,-1.7926586
113,1436283866287,-2.9592333,9.156625,-1.804031
114,1436283866288,-2.961029,9.106945,-1.7956513
115,1436283866296,-2.954445,9.120711,-1.8411411
116,1436283866313,-2.9724014,9.180567,-1.9129672
117,1436283866334,-3.0544028,9.269751,-1.9536686
118,1436283866352,-3.0460231,9.2308445,-1.9339164
119,1436283866372,-2.961029,9.169792,-1.863886
120,1436283866395,-2.859874,9.1668,-1.8507179
121,1436283866413,-2.7383683,9.293094,-1.8267759
122,1436283866433,-2.6090813,9.397242,-1.8656816
123,1436283866454,-2.5300727,9.4217825,-1.8154035
124,1436283866476,-2.4887726,9.369708,-1.775899
125,1436283866494,-2.6330233,9.301474,-1.7477672
126,1436283866516,-2.7976246,9.270947,-1.7543513
127,1436283866536,-2.8874073,9.142858,-1.7501614
128,1436283866553,-2.932897,9.109938,-1.7292122
129,1436283866575,-2.959832,9.105149,-1.7681179
130,1436283866595,-2.9622262,9.194333,-1.763928
131,1436283866616,-2.8933928,9.244013,-1.7938557
132,1436283866636,-2.8419175,9.275736,-1.7866731
133,1436283866654,-2.7581203,9.244013,-1.7645266
134,1436283866674,-2.719813,9.22067,-1.7579426
135,1436283866695,-2.743755,9.227852,-1.7429788
136,1436283866716,-2.7976246,9.211691,-1.7770962
137,1436283866735,-2.8622682,9.219472,-1.7908629
138,1436283866756,-2.8862102,9.26197,-1.8555063
139,1436283866775,-2.8694508,9.228451,-1.8746599
140,1436283866796,-2.855684,9.196728,-1.8920178
141,1436283866815,-2.8880057,9.179968,-1.887828
142,1436283866836,-2.8898015,9.167398,-1.9045875
143,1436283866857,-2.9179332,9.22426,-1.9183542
144,1436283866875,-2.883816,9.304466,-1.9375077
145,1436283866895,-2.815581,9.238626,-1.87047
146,1436283866916,-2.7694929,9.220071,-1.8776526
147,1436283866934,-2.822764,9.257181,-1.8698715
148,1436283866954,-2.8508956,9.248202,-1.9063832
149,1436283867054,-2.859874,9.258977,-1.8950106
150,1436283867061,-2.847903,9.27394,-1.882441
151,1436283867062,-2.8299465,9.246407,-1.9075803
152,1436283867063,-2.7593174,9.18715,-1.8848352
153,1436283867068,-2.7401638,9.224859,-1.9207484
154,1436283867085,-2.7832594,9.243414,-1.9548657
155,1436283867096,-2.7431567,9.213487,-1.9883845
156,1436283867145,-2.7712884,9.147646,-1.963844
157,1436283867146,-2.883816,9.193734,-1.977012
158,1436283867153,-2.9873652,9.260772,-2.0009542
159,1436283867175,-2.9245174,9.136872,-1.9476831
160,1436283867199,-2.8933928,9.133281,-1.9147629
161,1436283867213,-2.895787,9.160814,-1.8674773
162,1436283867237,-2.8520927,9.238028,-1.8674773
163,1436283867257,-2.777274,9.263166,-1.875857
164,1436283867274,-2.695871,9.264962,-1.857302
165,1436283867297,-2.64679,9.258977,-1.8375498
166,1436283867316,-2.6330233,9.251794,-1.8261774
167,1436283867336,-2.6767175,9.2625675,-1.9087774
168,1436283867356,-2.5809495,9.275137,-1.8722657
169,1436283867374,-2.6839,9.516952,-1.9147629
170,1436283867397,-3.0256724,9.664195,-1.83336
171,1436283867416,-3.2824504,9.4774475,-1.6124948
172,1436283867435,-3.3889925,9.267356,-1.3437457
173,1436283867456,-3.2740707,9.04709,-1.0977415
174,1436283867476,-3.304597,8.995614,-0.98102415
175,1436283867497,-3.3387144,8.928576,-0.93972415
176,1436283867516,-3.3345244,8.826823,-0.9056068
177,1436283867537,-3.318962,8.725668,-0.8882488
178,1436283867556,-3.2794578,8.711902,-0.87448215
179,1436283867578,-3.2190042,8.881889,-0.8900445
180,1436283867597,-3.401562,9.090185,-0.9271546
181,1436283867617,-3.5344403,8.969278,-0.8882488
182,1436283867637,-3.5805287,8.89446,-0.7110779
183,1436283867655,-3.7014358,8.810662,-0.7230489
184,1436283867675,-3.6727054,8.664616,-0.6440403
185,1436283867703,-3.5314474,8.498219,-0.61171854
186,1436283867715,-3.4225113,8.557475,-0.66738373
187,1436283867783,-3.354875,8.740033,-0.8948329
188,1436283867784,-3.0017304,8.637083,-1.1318588
189,1436283867785,-2.5288756,8.680777,-1.4951789
190,1436283867794,-2.0452468,8.735844,-1.9967642
191,1436283867824,-1.4993688,8.762778,-2.468422
192,1436283867835,-0.81881696,8.680777,-2.9933507
193,1436283867856,-0.17118542,8.981848,-3.3758245
194,1436283867876,0.25498247,9.459491,-3.976769
195,1436283868077,0.6171055,9.622895,-4.4687777
196,1436283868078,0.7721301,9.858126,-4.7159786
197,1436283868079,1.0295067,10.435727,-5.1960163
198,1436283868080,1.1797429,10.508151,-5.221754
199,1436283868114,1.1593921,10.163984,-5.04578
200,1436283868115,1.4586674,10.0029745,-4.727351
201,1436283868116,1.0510546,9.802461,-4.531027
202,1436283868117,0.6631939,9.703699,-4.390966
203,1436283868118,0.50876784,9.572617,-4.3041763
204,1436283868119,0.3417723,9.551069,-4.162918
205,1436283868120,0.42078096,9.439739,-4.0132804
206,1436283868121,0.38067806,9.654019,-3.9558198
207,1436283868134,0.090979666,10.0825815,-3.9294837
208,1436283868156,0.1400608,9.812635,-3.6739025
209,1436283868178,-0.08080431,9.721656,-3.4159272
210,1436283868194,-0.24181437,9.454104,-3.3997664
211,1436283868215,-0.19273324,9.152434,-3.2333694
212,1436283868236,-0.4441244,9.654618,-3.4117374
213,1436283868256,-0.3441665,9.628283,-3.4644098
214,1436283868277,0.044292733,9.733627,-3.4680011
215,1436283868294,0.059855044,9.970653,-3.459023
216,1436283868317,0.24301147,9.601347,-3.2477345
217,1436283868337,0.5009867,9.300875,-3.0663738
218,1436283868357,0.95468795,9.456498,-3.1136594
219,1436283868377,1.0833763,9.685743,-3.2213984
220,1436283868398,0.8924387,10.299257,-3.2752678
221,1436283868417,0.046088383,11.283873,-3.280655
222,1436283868436,0.25797522,11.714231,-3.1064768
223,1436283868456,0.33758244,12.093113,-2.9951463
224,1436283868478,0.59376204,12.617443,-2.8981812
225,1436283868498,1.1162965,12.768278,-2.7353754
226,1436283868516,0.83138657,12.987347,-2.517503
227,1436283868534,0.705691,13.483545,-2.168548
228,1436283868555,1.6292542,12.37922,-1.6490064
229,1436283868579,1.9722236,10.410587,-0.8283938
230,1436283868593,2.1428106,9.204509,-0.049081136
231,1436283868614,1.6220716,9.22426,0.36870706
232,1436283868634,2.1942859,9.613318,0.8774749
233,1436283868655,3.3207579,9.353547,1.4275428
234,1436283868674,4.7189717,8.859743,2.0482395
235,1436283868694,4.3879733,9.018958,2.4648306
236,1436283868718,3.53863,9.114726,2.5264814
237,1436283868737,2.7970262,9.080608,2.7736826
238,1436283868757,1.9566613,8.735844,2.710835
239,1436283868778,1.3533225,8.333617,2.8682537
240,1436283868795,0.6194997,8.106169,2.9652188
241,1436283868818,0.34356794,7.807492,3.0310593
242,1436283868838,-0.2184709,7.9026613,3.020884
243,1436283868855,-0.2789245,7.526173,2.9538465
244,1436283868878,-0.27353755,6.919243,3.0603883
245,1436283868898,-0.320823,6.522404,3.1040826
246,1436283868915,-0.16160862,6.7043633,3.0765493
247,1436283868938,-0.24540567,7.1101804,2.918532
248,1436283868955,-0.16759412,7.2963295,2.8072014
249,1436283868976,-0.32142156,7.4268136,2.409764
250,1436283868996,-0.22385786,8.021772,2.1266496
251,1436283869017,0.06284779,8.634688,2.1859062
252,1436283869040,0.7326257,9.312247,2.3062148
253,1436283869067,0.7751228,10.477027,2.0111294
254,1436283869080,0.3298013,11.733982,1.4634558
255,1436283869096,0.088585466,12.406754,1.5275006
256,1436283869116,-0.65062433,13.502699,1.5400703
257,1436283869135,-0.29688102,14.123995,0.7978677
258,1436283869155,-1.6579847,14.385561,0.38606504
259,1436283869175,-2.3894134,14.416087,-0.48123455
260,1436283869199,-2.0129251,14.390948,-1.5047557
261,1436283869251,-0.44532153,12.29243,-2.0679917
262,1436283869276,1.2557588,10.190321,-2.2625206
263,1436283869277,1.5819688,9.273342,-2.622848
264,1436283869278,0.5231331,10.221446,-3.21661
265,1436283869295,-0.12330139,10.364499,-3.7271736
266,1436283869319,-0.53330845,10.277111,-3.532046
267,1436283869335,-0.24660277,9.9790325,-3.2932243
268,1436283869355,-0.10115502,9.248801,-2.6342204
269,1436283869377,-0.62608373,8.707113,-1.9752164
270,1436283869397,-1.2988545,8.37013,-1.4083891
271,1436283869417,-1.7052702,7.984064,-1.1091139
272,1436283869436,-1.7435774,7.240066,-1.0193313
273,1436283869458,-2.0805612,6.505046,-0.84455466
274,1436283869476,-2.5510218,6.093243,-0.7787141
275,1436283869498,-3.0178912,5.965752,-0.7799112
276,1436283869519,-3.433884,5.9687448,-0.8678981
277,1436283869538,-3.3985693,5.6760535,-0.8331822
278,1436283869558,-3.3620577,5.6904187,-0.91219085
279,1436283869576,-3.3159695,6.3631897,-1.3856442
280,1436283869598,-3.4769795,7.306505,-1.934515
281,1436283869619,-2.7515364,7.727885,-2.0165164
282,1436283869638,-1.8411411,7.865551,-1.7944542
283,1436283869657,-1.4454993,8.39886,-1.9087774
284,1436283869676,-1.5167267,9.331401,-2.336741
285,1436283869697,-2.472612,11.301829,-2.705448
286,1436283869718,-2.8981812,12.826337,-3.2369606
287,1436283869739,-3.639785,14.0390005,-3.4979286
288,1436283869758,-3.9199066,15.299547,-3.8630445
289,1436283869778,-2.914342,15.962741,-4.0019083
290,1436283869798,-3.8325183,15.705364,-3.4584243
291,1436283869818,-3.1483753,14.046183,-2.8203697
292,1436283869839,-1.0636241,11.704055,-1.7274165
293,1436283869858,-0.12150574,10.492589,-0.80325466
294,1436283869879,0.15382746,10.924743,-0.29987377
295,1436283869896,0.1604115,10.439917,0.19093758
296,1436283869923,-0.01316811,9.412804,0.24600422
297,1436283869988,-0.6655881,8.549096,0.18794483
298,1436283869989,-1.2491747,8.186374,0.05865794
299,1436283869990,-1.5310919,7.888296,-0.18495208
300,1436283870021,-1.3754689,7.3310456,-0.16639702
301,1436283870022,-1.3090298,6.71813,0.029927522
302,1436283870036,-1.6095021,6.443994,0.011372458
303,1436283870064,-1.6286557,6.145916,-0.26156655
304,1436283870086,-1.9614497,5.9448028,-0.30765492
305,1436283870097,-1.8058267,6.1279593,-0.23762453
306,1436283870128,-1.8261774,6.2099605,-0.24121583
307,1436283870136,-2.0895395,6.4966664,-0.25079262
308,1436283870158,-1.9542671,6.977302,-0.13108255
309,1436283870185,-1.4610616,7.902063,-0.022146367
310,1436283870198,-1.4580688,8.782531,0.01316811
311,1436283870218,-1.4275428,9.302073,0.26874915
312,1436283870239,-0.6985083,10.207679,0.61411273
313,1436283870259,0.04249708,11.406575,0.3681085
314,1436283870279,0.5231331,11.139024,0.34237084
315,1436283870298,0.2789245,11.191097,0.48003745
316,1436283870318,-0.20530279,12.49055,-0.18914193
317,1436283870338,-0.83497787,14.16709,-0.8499416
318,1436283870358,-0.18255788,14.73691,-1.1522095
319,1436283870379,0.04249708,13.15135,-1.2904748
320,1436283870397,1.7322049,12.108076,-2.0847511
321,1436283870423,2.6001031,11.263522,-2.4636335
322,1436283870439,2.7539306,10.495582,-3.1423898
323,1436283870463,2.3349452,10.111911,-3.41473
324,1436283870478,1.5400703,9.730036,-3.4769795
325,1436283870497,0.4381389,9.294889,-3.4560301
326,1436283870520,0.65242,8.348581,-3.6224272
327,1436283870537,0.842759,7.4166384,-3.4440591
328,1436283870556,1.1180922,7.77517,-2.942474
329,1436283870595,1.7226281,8.603564,-2.791639
330,1436283870596,2.1152773,8.555679,-2.4875755
331,1436283870616,2.6916811,7.8368206,-2.291251
332,1436283870637,2.9059622,8.581417,-2.396596
333,1436283870658,2.5019407,9.312846,-2.630629
334,1436283870676,2.1619642,8.359954,-2.1308396
335,1436283870706,2.0685902,7.177218,-1.6514006
336,1436283870738,1.4281414,6.4002995,-1.7256209
337,1436283870739,0.5530606,6.670246,-1.8908207
338,1436283870757,0.98820674,7.3346367,-2.3026235
339,1436283870776,1.3533225,7.7572136,-2.4929626
340,1436283870801,0.8571242,8.828619,-3.0885203
341,1436283870817,0.66858083,9.992201,-3.5404258
342,1436283870836,1.2138603,10.624868,-3.6511576
343,1436283870858,1.4556746,11.114483,-3.6894648
344,1436283870876,1.2575544,12.6060705,-4.224569
345,1436283870898,0.8038532,14.607024,-5.040992
346,1436283870921,0.16340427,16.308105,-5.5204306
347,1436283870937,0.6500258,16.048334,-4.9781437
348,1436283870960,0.6584055,12.925097,-3.9606082
349,1436283870980,1.6807296,10.738593,-3.1944637
350,1436283870997,1.7824832,9.078215,-2.5965118
351,1436283871018,0.47046062,8.996213,-1.4514848
352,1436283871037,0.748188,9.318831,-0.56922144
353,1436283871058,1.7196354,8.635885,0.08439561
354,1436283871077,1.9794062,7.9343843,0.51595044
355,1436283871097,0.8158242,8.158841,0.5470751
356,1436283871118,0.032920275,8.623316,0.45609543
357,1436283871140,-0.24540567,8.359954,0.43035775
358,1436283871158,-0.37229836,8.06427,0.44831428
359,1436283871180,-0.40581718,8.1881695,0.42916065
360,1436283871200,-0.033518825,8.223484,0.47465047
361,1436283871218,0.1933318,8.185776,0.5674258
362,1436283871238,0.350152,8.22528,0.43754035
363,1436283871260,-0.28311434,7.878121,0.2136825
364,1436283871277,-0.53450555,7.311892,0.026934769
365,1436283871298,-0.8074445,6.8851256,-0.08619126
366,1436283871317,-0.7146692,6.825869,-0.11971009
367,1436283871338,-1.1420342,7.515399,-0.31902736
368,1436283871360,-1.447295,8.094796,-0.3854665
369,1436283871377,-1.3652935,8.646061,-0.17178397
370,1436283871398,-1.1959038,8.4664955,0.0011971008
371,1436283871426,-1.894412,9.461287,0.19752164
372,1436283871483,-2.019509,11.346721,-0.260968
373,1436283871484,-0.8451532,12.840702,-0.60812724
374,1436283871485,-0.52732295,13.932458,-0.9720459
375,1436283871504,-1.7968484,15.468339,-1.6358383
376,1436283871517,-1.8112136,16.312294,-2.3223755
377,1436283871541,-0.961272,14.341269,-2.355296
378,1436283871557,0.7679402,12.191874,-2.521693
379,1436283871577,2.1655555,11.444882,-3.4512417
380,1436283871599,3.1950622,11.5316725,-4.3885717
381,1436283871618,2.8107927,11.077971,-4.5418005
382,1436283871639,2.0033484,10.76493,-4.4580035
383,1436283871667,1.678934,10.468647,-4.0779243
384,1436283871692,1.0348936,9.686341,-3.7666779
385,1436283871703,0.11851298,8.730456,-3.3979707
386,1436283871718,-0.79607207,7.9170265,-3.2357635
387,1436283871738,-1.2138603,7.5441294,-3.110068
388,1436283871760,-1.572392,7.4244194,-3.204639
389,1436283871780,-1.4975731,7.07726,-3.044826
390,1436283871800,-1.863886,6.5666966,-2.767697
391,1436283871819,-2.3116016,6.2740054,-2.557606
392,1436283871839,-2.4690206,5.988497,-2.3930047
393,1436283871860,-2.132635,5.8867435,-2.1751323
394,1436283871879,-1.5400703,6.166865,-2.243367
395,1436283871899,-0.5482722,6.8641763,-2.2451627
396,1436283871920,0.29927522,7.0940194,-2.180519
397,1436283871940,0.80684596,7.1113777,-2.3660698
398,1436283871961,0.27593175,7.889493,-3.0238767
399,1436283871979,0.5638345,8.641273,-3.345897
400,1436283872001,1.6214731,9.171588,-2.8095956
401,1436283872026,0.2837129,10.652402,-3.0603883
402,1436283872045,-0.61052144,12.890382,-3.9935284
403,1436283872060,-0.1340753,14.803947,-4.546589
404,1436283872080,-0.21667525,15.866375,-4.8584337
405,1436283872100,-0.7074866,16.378136,-4.5561657
406,1436283872119,-0.090979666,15.136742,-3.7241807
407,1436283872148,1.6531962,12.334329,-2.2343888
408,1436283872209,1.5795746,9.850943,-1.1240777
409,1436283872210,0.59974754,8.646061,-0.23283611
410,1436283872211,0.41359833,9.276335,-0.044891283
411,1436283872229,0.40162733,9.418191,-0.33399114
