id,attr_time,attr_x,attr_y,attr_z
1,1436283864014,0.7356185,9.7402115,0.4297592
2,1436283864032,0.7380127,9.712678,0.44592008
3,1436283864052,0.741604,9.693524,0.41359833
4,1436283864073,0.7170634,9.668983,0.40102878
5,1436283864096,0.7314286,9.665991,0.41120413
6,1436283864116,0.7218518,9.680356,0.41838676
7,1436283864140,0.7206547,9.740809,0.4285621
8,1436283864154,0.7020996,9.7162695,0.43754035
9,1436283864172,0.7266402,9.657611,0.39384618
10,1436283864197,0.700304,9.667787,0.44711718
11,1436283864213,0.7038953,9.698911,0.46208093
12,1436283864241,0.7404069,9.7007065,0.4141969
13,1436283864309,0.7625532,9.667188,0.43035775
14,1436283864311,0.75716627,9.6528225,0.39264908
15,1436283864312,0.7445967,9.69951,0.39504328
16,1436283864313,0.7374141,9.715671,0.45010993
17,1436283864333,0.7158663,9.742605,0.46148238
18,1436283864354,0.7553706,9.680955,0.34476504
19,1436283864371,0.7398083,9.679757,0.52073884
20,1436283864391,0.7457938,9.721656,0.31364042
21,1436283864416,0.7302315,9.646238,0.17298107
22,1436283864434,0.7356185,9.607931,0.45010993
23,1436283864453,0.7260417,9.697116,0.4782418
24,1436283864473,0.7649474,9.784504,0.33638534
25,1436283864494,0.7314286,9.731233,0.37588966
26,1436283864514,0.7140707,9.736021,0.40462008
27,1436283864533,0.75237787,9.721058,0.38965634
28,1436283864555,0.75357497,9.713875,0.34955344
29,1436283864575,0.7338228,9.690532,0.3537433
30,1436283864595,0.7344214,9.662998,0.3477578
31,1436283864615,0.7565677,9.633071,0.3878607
32,1436283864635,0.7727286,9.598953,0.3369839
33,1436283864655,0.736217,9.689933,0.41479546
34,1436283864675,0.74399817,9.772532,0.45010993
35,1436283864694,0.7224504,9.764751,0.47465047
36,1436283864714,0.7356185,9.694122,0.39624038
37,1436283864735,0.7404069,9.636064,0.35913026
38,1436283864755,0.7080852,9.680356,0.38486794
39,1436283864775,0.6925228,9.759365,0.41060558
40,1436283864794,0.7104794,9.76954,0.40043023
41,1436283864814,0.712275,9.676167,0.415394
42,1436283864836,0.6859388,9.64983,0.44352585
43,1436283864878,0.682946,9.721656,0.44352585
44,1436283864880,0.6607997,9.701305,0.41479546
45,1436283864892,0.64703304,9.706693,0.4333505
46,1436283864912,0.61650693,9.669582,0.40581718
47,1436283864935,0.66498953,9.679159,0.35254622
48,1436283864961,0.6871359,9.7007065,0.3345897
49,1436283865024,0.7038953,9.677961,0.4429273
50,1436283865025,0.6434417,9.706094,0.5201403
51,1436283865026,0.6548142,9.720459,0.46267948
52,1436283865035,0.6739678,9.696517,0.47345337
53,1436283865054,0.7158663,9.701305,0.45370123
54,1436283865075,0.717662,9.771336,0.3286042
55,1436283865092,0.7182605,9.612122,0.29807812
56,1436283865113,0.6290765,9.621099,0.55605334
57,1436283865132,0.61112,9.8198185,0.46447513
58,1436283865155,0.59855044,9.820416,0.39803603
59,1436283865176,0.59256494,9.759365,0.3728969
60,1436283865196,0.6392518,9.680356,0.36990416
61,1436283865213,0.6362591,9.594764,0.37469256
62,1436283865233,0.6314707,9.626487,0.38187516
63,1436283865255,0.6811504,9.700109,0.28311434
64,1436283865275,0.6500258,9.7479925,0.4177882
65,1436283865295,0.7068881,9.680955,0.32441434
66,1436283865316,0.6805518,9.677363,0.48602295
67,1436283865335,0.6410475,9.725247,0.5009867
68,1436283865355,0.6386533,9.745,0.45609543
69,1436283865376,0.6703765,9.73662,0.43514615
70,1436283865393,0.66738373,9.742605,0.4177882
71,1436283865413,0.61890113,9.6767645,0.41718966
72,1436283865435,0.60453594,9.631275,0.4249708
73,1436283865453,0.6254852,9.646238,0.41240123
74,1436283865472,0.6290765,9.702502,0.40940848
75,1436283865492,0.6015432,9.658808,0.43275195
76,1436283865518,0.5662287,9.609727,0.40162733
77,1436283865535,0.59495914,9.660006,0.38606504
78,1436283865558,0.6039374,9.723452,0.3716998
79,1436283865576,0.62129533,9.710882,0.3609259
80,1436283865593,0.62488663,9.660604,0.39923313
81,1436283865613,0.5943606,9.603742,0.39264908
82,1436283865633,0.6147113,9.587581,0.40821138
83,1436283865655,0.6266823,9.668983,0.39803603
84,1436283865674,0.6733692,9.63726,0.3441665
85,1436283865744,0.6733692,9.661202,0.46088383
86,1436283865745,0.6027403,9.724648,0.46986207
87,1436283865746,0.5859809,9.729437,0.11552023
88,1436283865753,0.6063316,9.587581,0.4237737
89,1436283865782,0.59735334,9.703699,0.4429273
90,1436283865795,0.5823896,9.835979,0.4237737
91,1436283865815,0.5351041,9.770737,0.39145198
92,1436283865834,0.5805939,9.72824,0.37828386
93,1436283865855,0.62129533,9.697714,0.3842694
94,1436283865875,0.6380547,9.649231,0.35913026
95,1436283865894,0.59017074,9.643845,0.35673606
96,1436283865915,0.52971715,9.644443,0.4758476
97,1436283865935,0.58119243,9.677363,0.3286042
98,1436283865955,0.6967127,9.700109,0.29269117
99,1436283865975,0.6398504,9.723452,0.46746787
100,1436283865996,0.5530606,9.706693,0.4818331
101,1436283866016,0.60573304,9.718064,0.4357447
102,1436283866036,0.6290765,9.689334,0.36272156
103,1436283866055,0.65062433,9.680356,0.34117374
104,1436283866075,0.64463884,9.674371,0.37469256
105,1436283866097,0.6135142,9.712678,0.40880993
106,1436283866115,0.61411273,9.718663,0.42078096
107,1436283866138,0.6051345,9.721656,0.35434186
108,1436283866154,0.5931635,9.713875,0.35913026
109,1436283866173,0.60214174,9.703699,0.40521863
110,1436283866197,0.59974754,9.717466,0.43394905
111,1436283866214,0.6015432,9.701305,0.3657143
112,1436283866236,0.6536171,9.694721,0.31663316
113,1436283866256,0.6757634,9.718064,0.39324763
114,1436283866276,0.65301853,9.731832,0.47764325
115,1436283866297,0.6063316,9.683948,0.43754035
116,1436283866316,0.66858083,9.633669,0.23223756
117,1436283866345,0.66259533,9.621099,0.55485624
118,1436283866353,0.6805518,9.82341,0.28191724
119,1436283866373,0.65780693,9.733028,0.14305355
120,1436283866393,0.60453594,9.574412,0.29388827
121,1436283866422,0.5734113,9.636064,0.3453636
122,1436283866438,0.6596026,9.864111,0.3321955
123,1436283866453,0.6332663,9.829993,0.4369418
124,1436283866473,0.61411273,9.764751,0.41120413
125,1436283866493,0.7110779,9.677363,0.3286042
126,1436283866514,0.74758947,9.626487,0.2669535
127,1436283866534,0.7553706,9.644443,0.30945057
128,1436283866566,0.7128736,9.680356,0.37828386
129,1436283866585,0.6943185,9.661801,0.37948096
130,1436283866593,0.6877344,9.717466,0.362123
131,1436283866619,0.64583594,9.762956,0.3866636
132,1436283866634,0.61052144,9.742605,0.40641573
133,1436283866655,0.6344634,9.66659,0.3681085
134,1436283866677,0.6847417,9.61691,0.338181
135,1436283866697,0.7134721,9.69951,0.31663316
136,1436283866715,0.6943185,9.809045,0.35913026
137,1436283866735,0.6691794,9.759365,0.4141969
138,1436283866757,0.6560113,9.671378,0.3878607
139,1436283866777,0.60333884,9.590573,0.35913026
140,1436283866797,0.5943606,9.630077,0.32621
141,1436283866817,0.6476316,9.701904,0.32621
142,1436283866836,0.6793547,9.753978,0.3693056
143,1436283866856,0.66379243,9.755774,0.41838676
144,1436283866877,0.6344634,9.625289,0.3321955
145,1436283866897,0.6536171,9.595961,0.35254622
146,1436283866917,0.6572084,9.696517,0.41838676
147,1436283866934,0.7206547,9.727043,0.31902736
148,1436283866956,0.7200562,9.739613,0.52971715
149,1436283866978,0.6799533,9.759365,0.3333926
150,1436283866997,0.6727707,9.771336,0.24600422
151,1436283867017,0.66738373,9.634268,0.15143326
152,1436283867037,0.5859809,9.620501,0.44651863
153,1436283867055,0.58897364,9.698313,0.4201824
154,1436283867075,0.65900403,9.809045,0.3561375
155,1436283867097,0.6218939,9.8276,0.3776853
156,1436283867121,0.6302736,9.727641,0.40521863
157,1436283867221,0.65900403,9.66659,0.31483752
158,1436283867222,0.6051345,9.668385,0.3274071
159,1436283867223,0.6422446,9.654019,0.35913026
160,1436283867224,0.6853402,9.664794,0.40043023
161,1436283867236,0.79008657,9.573814,0.29029694
162,1436283867237,0.7116765,9.635465,0.4357447
163,1436283867255,0.66259533,9.72824,0.35075054
164,1436283867274,0.6560113,9.739613,0.40043023
165,1436283867294,0.6703765,9.667188,0.3597288
166,1436283867319,0.664391,9.664195,0.3333926
167,1436283867335,0.66498953,9.725846,0.3286042
168,1436283867354,0.6889315,9.698313,0.30585927
169,1436283867375,0.717662,9.6923275,0.3573346
170,1436283867395,0.664391,9.680955,0.37708676
171,1436283867418,0.7104794,9.622895,0.3489549
172,1436283867437,0.7811083,9.616311,0.36511576
173,1436283867456,0.9175778,9.621698,0.39683893
174,1436283867478,0.9756372,9.619304,0.53689975
175,1436283867498,0.97862995,9.856929,0.49081135
176,1436283867517,0.8331822,10.03769,0.4902128
177,1436283867536,0.79846627,9.9790325,0.59136784
178,1436283867558,0.80445176,9.725846,0.49320555
179,1436283867578,0.84216046,9.524733,0.17178397
180,1436283867598,0.92535895,9.417592,0.3728969
181,1436283867615,1.0815806,9.412804,0.3645172
182,1436283867638,1.2916719,9.346964,0.12808979
183,1436283867661,1.4646529,9.165004,0.23702596
184,1436283867676,1.5376761,8.966286,0.415394
185,1436283867701,1.4873978,9.24521,0.110731825
186,1436283867718,1.328782,9.609129,-0.08140286
187,1436283867735,1.3066356,9.750985,-0.3573346
188,1436283867755,1.2629414,9.834782,-0.26755205
189,1436283867776,0.83138657,9.697116,-0.14305355
190,1436283867795,0.50038815,9.614515,-0.17896658
191,1436283867816,0.54767364,9.67018,-0.3788824
192,1436283867835,0.5363012,9.855133,-0.545878
193,1436283867857,0.712275,9.813234,-0.53809685
194,1436283867884,0.8714894,9.582193,-0.712275
195,1436283867956,0.8888474,9.665991,-0.81343
196,1436283867957,0.66139823,9.745,-1.1312603
197,1436283867958,0.09876082,9.535507,-1.2449849
198,1436283867959,-0.19931729,9.332599,-1.7621324
199,1436283867975,-0.14844051,9.504382,-1.8016368
200,1436283867996,-0.074818805,10.02153,-1.8022354
201,1436283868015,-0.17597382,10.540473,-1.8154035
202,1436283868035,-0.46686932,10.676943,-1.6478093
203,1436283868056,-0.87567925,10.2178545,-1.4437037
204,1436283868086,-1.1007342,9.74859,-1.4431051
205,1436283868220,-1.0181342,9.059659,-1.6208745
206,1436283868221,-0.93613285,8.89446,-2.2080526
207,1436283868222,-0.9475053,9.335591,-2.134431
208,1436283868223,-0.85652566,9.745598,-2.36188
209,1436283868224,-0.6398504,9.824607,-2.3307555
210,1436283868225,-0.4950012,9.813234,-2.0147207
211,1436283868226,-0.58298814,9.464878,-2.1086931
212,1436283868255,-0.55605334,9.529521,-1.946486
213,1436283868256,-0.65242,9.519944,-1.8734628
214,1436283868275,-0.6368576,9.457097,-2.143409
215,1436283868296,-0.47644615,9.411607,-2.2864625
216,1436283868316,-0.35434186,9.275736,-2.2050598
217,1436283868335,-0.25498247,9.335591,-2.3720553
218,1436283868355,-0.05925649,9.524135,-2.3175871
219,1436283868378,0.24720132,9.4217825,-1.9716251
220,1436283868395,0.050876785,8.585608,-2.19249
221,1436283868415,0.63087213,9.671378,-2.3157916
222,1436283868435,0.15502456,9.3661175,-2.6300306
223,1436283868454,-0.14544775,9.448118,-2.6234465
224,1436283868484,-0.21787235,9.721656,-3.1411927
225,1436283868494,-0.207697,10.061633,-3.1531637
226,1436283868516,-0.24001873,10.930728,-3.0322564
227,1436283868536,0.06703765,11.762115,-2.6940753
228,1436283868556,0.557849,12.268488,-2.6503813
229,1436283868576,1.0366893,12.556391,-3.0705638
230,1436283868598,1.1821371,12.553398,-3.2052376
231,1436283868619,1.3904326,12.553997,-3.2172086
232,1436283868637,2.2463598,12.265495,-3.2022448
233,1436283868659,2.7527335,11.496358,-3.9588125
234,1436283868675,2.9526494,9.643246,-5.1277814
235,1436283868697,3.6529531,8.540716,-5.3875523
236,1436283868716,4.768651,8.513782,-5.4899044
237,1436283868734,5.0798974,8.513782,-4.5322237
238,1436283868754,4.285621,8.288726,-3.7433343
239,1436283868779,3.5613751,7.165846,-2.8419175
240,1436283868796,3.256713,6.3601966,-3.1202433
241,1436283868816,3.0334535,6.379949,-2.878429
242,1436283868838,3.2022448,6.6965823,-2.3181858
243,1436283868858,3.627814,7.03596,-2.4121583
244,1436283868877,3.891775,7.53575,-1.9835961
245,1436283868901,3.8313212,7.4968443,-1.4155718
246,1436283868917,4.03004,7.0275807,-0.93972415
247,1436283868939,4.1599255,6.407482,-1.0127473
248,1436283868955,3.714604,6.199187,-1.2509704
249,1436283868979,3.2842462,6.518214,-1.2808979
250,1436283869000,3.0322564,6.761824,-1.6095021
251,1436283869018,3.2273839,6.706159,-1.3150153
252,1436283869037,3.4542346,6.612785,-1.3138182
253,1436283869059,3.359065,6.959346,-1.2946646
254,1436283869078,3.4560301,7.4112515,-1.9057846
255,1436283869100,3.6056678,7.6440873,-1.3575124
256,1436283869120,3.7110126,8.059482,-1.2467805
257,1436283869138,4.473566,8.823831,-1.5406688
258,1436283869157,5.1918263,9.454702,-1.9698294
259,1436283869177,5.4282537,10.503363,-1.8273745
260,1436283869197,4.3861775,11.675324,-1.4975731
261,1436283869218,3.269881,12.727576,-1.3126211
262,1436283869236,3.4518404,13.130401,-1.8477252
263,1436283869258,3.9785647,13.414712,-3.3542767
264,1436283869276,4.97156,14.425065,-3.9959226
265,1436283869306,4.551976,14.616003,-4.279037
266,1436283869341,3.5272577,12.487557,-3.4320881
267,1436283869342,2.9897594,9.63726,-3.620033
268,1436283869356,2.666542,7.5746555,-4.993706
269,1436283869378,2.1080947,8.161834,-4.619612
270,1436283869395,1.2018893,9.749189,-3.8504748
271,1436283869420,0.8834604,10.086772,-3.3584664
272,1436283869440,1.5711949,9.11712,-2.6007016
273,1436283869457,1.9267339,8.037335,-2.0428526
274,1436283869476,1.6160861,7.5082164,-1.9213469
275,1436283869497,1.2449849,7.639898,-1.6717514
276,1436283869520,1.1360487,7.620744,-1.2264298
277,1436283869543,1.1731589,7.2987237,-1.3389573
278,1436283869560,0.81283146,6.8528037,-1.7100586
279,1436283869580,0.45130703,6.664859,-1.4466964
280,1436283869600,0.3321955,6.6947865,-1.5400703
281,1436283869620,0.21188685,6.63134,-1.0402806
282,1436283869640,0.2717419,6.7163343,-1.1755531
283,1436283869659,0.57161564,7.020398,-1.0301052
284,1436283869680,0.7128736,7.735666,-1.0307038
285,1436283869701,0.30286652,7.952341,-1.3449428
286,1436283869717,0.24720132,7.4842744,-1.2892777
287,1436283869740,0.4381389,7.2610154,-1.3054385
288,1436283869756,0.25558102,7.8009076,-1.4568717
289,1436283869778,-0.58538234,8.992023,-1.6753427
290,1436283869802,-1.388637,12.528259,-1.2156559
291,1436283869817,-0.943914,15.50904,-1.0073603
292,1436283869863,-0.39264908,16.730083,-1.7142484
293,1436283869864,0.28790274,16.410458,-2.337938
294,1436283869876,0.87328506,15.262437,-2.9628246
295,1436283869896,1.3215994,15.200787,-3.4733882
296,1436283869917,2.3080103,14.708179,-3.4021606
297,1436283869937,3.027468,12.5186825,-3.5422213
298,1436283869961,3.6649241,10.50037,-3.608062
299,1436283869978,3.1082723,8.428787,-4.132991
300,1436283870031,2.147599,7.9062524,-3.9187095
301,1436283870032,2.1649568,8.668806,-1.8752584
302,1436283870040,2.2541409,9.094974,-1.1300632
303,1436283870057,2.292448,8.107366,-1.0342951
304,1436283870079,2.0266917,6.9132576,-0.99179804
305,1436283870097,1.4508862,6.142923,-0.5494693
306,1436283870117,0.8912416,5.783194,-0.5626374
307,1436283870139,0.79008657,6.1530986,-0.3776853
308,1436283870161,1.1079168,6.4392056,-0.12988544
309,1436283870178,1.608305,5.9627595,-0.40581718
310,1436283870197,1.5652094,5.225345,-0.6171055
311,1436283870219,1.5478514,5.427655,-0.6398504
312,1436283870238,1.7022774,6.369175,-0.36032736
313,1436283870261,1.7741034,7.41604,-0.59974754
314,1436283870280,1.9339164,7.9972324,-0.58298814
315,1436283870300,2.259528,8.785523,-0.7326257
316,1436283870320,2.630629,9.581595,-0.36870706
317,1436283870341,2.6180596,10.086173,-0.25079262
318,1436283870360,2.984971,10.581175,-0.6278794
319,1436283870380,3.2668881,11.152191,-1.2964603
320,1436283870400,2.8341362,11.713034,-0.92895025
321,1436283870420,2.6318262,12.076353,-0.5327099
322,1436283870442,2.8215668,12.908937,-2.3517046
323,1436283870458,4.0096893,13.743915,-2.8999767
324,1436283870481,4.8219223,14.055759,-3.6361938
325,1436283870499,2.867655,12.800599,-4.004901
326,1436283870518,1.06123,11.298238,-4.333505
327,1436283870537,0.18315643,10.516531,-4.657321
328,1436283870561,0.41060558,9.85214,-4.146757
329,1436283870581,0.8631097,9.381081,-3.0998926
330,1436283870601,1.0690111,9.601946,-2.3145945
331,1436283870621,1.4496891,10.046669,-2.083554
332,1436283870640,2.3133974,9.48044,-2.6922798
333,1436283870658,2.1667526,7.8104844,-1.7770962
334,1436283870678,1.021127,6.88752,-0.7745243
335,1436283870699,-0.99778354,6.8528037,-0.8798691
336,1436283870723,-0.8571242,6.899491,-0.81642276
337,1436283870770,0.4405331,6.225523,-1.0809821
338,1436283870771,1.335366,6.013636,-0.8146271
339,1436283870789,1.0013748,6.42903,-0.7565677
340,1436283870798,0.26276365,6.6750345,-0.94092125
341,1436283870821,0.18674773,6.7199254,-1.2856863
342,1436283870839,0.34715924,6.8324533,-1.2922704
343,1436283870859,0.29927522,7.1568675,-1.1001357
344,1436283870880,0.15083471,7.541735,-1.1719618
345,1436283870900,-0.11791443,8.029554,-1.91596
346,1436283870919,-0.4141969,8.957906,-2.0326772
347,1436283870939,-0.9888053,11.323377,-2.2188265
348,1436283870960,-1.2635399,13.429676,-1.9895816
349,1436283870981,-0.8936358,14.861408,-1.7286136
350,1436283871001,0.026934769,15.676634,-1.2808979
351,1436283871021,0.8595184,15.796943,-1.5951369
352,1436283871041,0.83018947,15.473127,-2.6713305
353,1436283871061,1.1893197,14.296975,-2.7084408
354,1436283871081,2.0260932,11.767501,-3.7002387
355,1436283871101,3.2034419,9.142858,-3.86903
356,1436283871121,4.1701007,8.130111,-3.228581
357,1436283871142,3.7972038,8.388684,-2.825158
358,1436283871162,1.822586,8.734647,-1.87047
359,1436283871181,1.5298948,8.175002,-1.5053543
360,1436283871205,1.9512744,7.813477,-1.4969746
361,1436283871224,2.4199393,7.8930845,-0.93134445
362,1436283871243,2.6755204,8.055291,-0.7326257
363,1436283871263,2.3750482,7.961319,-0.6596026
364,1436283871281,2.393603,7.723695,-0.031124622
365,1436283871300,2.2092497,7.619547,0.20231004
366,1436283871320,1.7818847,7.301118,0.45609543
367,1436283871338,1.7525556,6.743269,-0.017357962
368,1436283871364,1.5143325,6.2686186,-0.12808979
369,1436283871384,1.2605472,5.915474,-0.46567222
370,1436283871404,1.5251064,6.3667808,-0.5979519
371,1436283871421,1.887828,7.192182,-0.6344634
372,1436283871441,1.5682021,7.6488757,-0.32621
373,1436283871512,1.8261774,8.097789,-0.33638534
374,1436283871513,2.3768437,8.822633,-1.0971429
375,1436283871514,2.4714148,9.878476,-1.7675194
376,1436283871522,2.321777,11.148002,-1.2138603
377,1436283871539,2.2996306,12.646772,-0.6314707
378,1436283871561,2.367267,13.736134,-0.7116765
379,1436283871578,2.3535004,13.710396,-0.22625206
380,1436283871601,2.783858,13.626599,-1.1246762
381,1436283871619,3.4434607,13.992912,-2.2349873
382,1436283871640,3.6978445,14.448409,-3.1932666
383,1436283871661,3.110068,14.337677,-3.1866825
384,1436283871682,1.7687165,12.543821,-2.7503393
385,1436283871703,0.24660277,10.316615,-2.6240451
386,1436283871721,0.19931729,8.368932,-3.4039562
387,1436283871742,0.760159,7.563283,-4.1066546
388,1436283871762,1.0534488,8.085219,-3.3877954
389,1436283871782,0.97862995,9.388862,-2.4552538
390,1436283871802,1.1815386,9.625289,-1.638831
391,1436283871822,1.186327,9.15842,-1.6124948
392,1436283871841,0.86131406,8.227076,-1.4867992
393,1436283871862,0.5177461,7.45734,-1.5777789
394,1436283871881,0.32680854,6.8743515,-1.5532384
395,1436283871901,0.25977087,6.697779,-1.644218
396,1436283871922,0.4782418,6.666056,-1.8710686
397,1436283871943,0.8858546,7.0006456,-2.1021092
398,1436283872002,1.1127052,7.2765775,-1.7250223
399,1436283872003,1.163582,7.1233487,-1.3569138
400,1436283872004,0.86610246,6.8342485,-1.3467385
401,1436283872020,0.55126494,6.6103907,-1.429937
402,1436283872070,0.16280572,6.5936313,-1.2892777
403,1436283872071,0.18315643,7.356185,-1.6220716
404,1436283872081,0.19153613,8.684368,-2.2493525
405,1436283872102,-0.0712275,10.353725,-2.106299
406,1436283872121,-0.19153613,12.302007,-1.775899
407,1436283872140,0.41599256,14.0952635,-1.9752164
408,1436283872262,1.3820529,14.748282,-1.38325
409,1436283872263,1.6316484,15.045163,-1.4389153
410,1436283872264,1.5292963,14.754268,-1.9985598
411,1436283872265,1.8118122,13.251906,-2.010531
412,1436283872266,2.5713725,10.965444,-2.2888567
413,1436283872267,3.3273418,8.8777,-2.885013
414,1436283872292,4.0402155,8.89805,-3.1471782
415,1436283872300,3.6475663,10.216658,-2.9712043
416,1436283872322,3.3650506,9.828796,-2.6497827
