id,attr_time,attr_x,attr_y,attr_z
1,1436284525419,9.836577,1.2395979,-0.56323594
2,1436284525437,9.940127,1.0911574,-0.57640404
3,1436284525458,9.8042555,1.0702082,-0.694917
4,1436284525477,9.6049385,1.1911154,-0.7320272
5,1436284525512,9.6767645,1.3204023,-0.52253455
6,1436284525518,9.775525,1.3269863,-0.48243165
7,1436284525561,9.948506,1.1881226,-0.56563014
8,1436284525562,9.852738,1.0576386,-0.7248446
9,1436284525576,9.705495,1.1755531,-0.74758947
10,1436284525598,9.698911,1.2539631,-0.63206923
11,1436284525618,9.825205,1.2234371,-0.5201403
12,1436284525636,9.89344,1.1174936,-0.5530606
13,1436284525659,9.723452,1.1318588,-0.6691794
14,1436284525678,9.610326,1.2593501,-0.74998367
15,1436284525698,9.726444,1.3084313,-0.61112
16,1436284525718,9.93893,1.1228806,-0.52492875
17,1436284525739,9.885659,1.003769,-0.6242881
18,1436284525760,9.731233,1.1899183,-0.712275
19,1436284525778,9.727043,1.3718776,-0.64463884
20,1436284525800,9.802461,1.2599486,-0.60932434
21,1436284525818,9.870695,1.1318588,-0.6392518
22,1436284525840,9.832388,1.1121067,-0.66618663
23,1436284525860,9.680955,1.1390414,-0.6913257
24,1436284525879,9.736021,1.18094,-0.6536171
25,1436284525898,9.855731,1.1558008,-0.5919664
26,1436284525918,9.859323,1.1288661,-0.6428431
27,1436284525940,9.73662,1.1587936,-0.7110779
28,1436284525962,9.659407,1.2802993,-0.6997054
29,1436284525990,9.816826,1.2132617,-0.581791
30,1436284526007,9.928755,1.0815806,-0.58418524
31,1436284526021,9.830592,1.1174936,-0.7380127
32,1436284526037,9.614515,1.2575544,-0.7787141
33,1436284526056,9.657013,1.2910733,-0.6500258
34,1436284526076,9.853935,1.1976994,-0.52732295
35,1436284526100,9.922171,1.1324574,-0.6051345
36,1436284526120,9.785701,1.1019313,-0.7284359
37,1436284526140,9.723452,1.246182,-0.6853402
38,1436284526158,9.709685,1.283292,-0.61650693
39,1436284526177,9.768942,1.2360066,-0.5482722
40,1436284526227,9.891046,1.1240777,-0.58418524
41,1436284526228,9.85633,1.1073183,-0.62009823
42,1436284526247,9.6923275,1.2204443,-0.7200562
43,1436284526257,9.614515,1.3521254,-0.7140707
44,1436284526277,9.76535,1.2605472,-0.5883751
45,1436284526298,9.914988,1.0223241,-0.599149
46,1436284526318,9.8515415,1.0528502,-0.6781576
47,1436284526339,9.721058,1.240795,-0.6781576
48,1436284526358,9.677363,1.3257892,-0.7230489
49,1436284526379,9.800665,1.2324153,-0.6584055
50,1436284526400,9.961076,1.1025299,-0.56323594
51,1436284526420,9.8754835,1.0360907,-0.57520694
52,1436284526439,9.631275,1.1821371,-0.7170634
53,1436284526461,9.596559,1.359308,-0.6739678
54,1436284526479,9.7007065,1.3443443,-0.6368576
55,1436284526502,9.949704,1.1079168,-0.5386954
56,1436284526518,9.93893,0.99060094,-0.6356605
57,1436284526538,9.675568,1.163582,-0.7493851
58,1436284526557,9.59177,1.3192052,-0.7218518
59,1436284526581,9.892242,1.264737,-0.55246204
60,1436284526598,9.956886,1.0761937,-0.61112
61,1436284526619,9.752182,1.0301052,-0.6548142
62,1436284526638,9.668983,1.2042835,-0.5907693
63,1436284526662,9.77373,1.3156139,-0.58777654
64,1436284526680,9.859921,1.1683705,-0.62249243
65,1436284526698,9.796474,1.0648212,-0.6715736
66,1436284526719,9.685743,1.1540052,-0.6476316
67,1436284526738,9.706693,1.2384008,-0.5398925
68,1436284526763,9.915586,1.2036849,-0.4878186
69,1436284526783,9.944317,1.1174936,-0.533907
70,1436284526803,9.847352,1.1133038,-0.5793968
71,1436284526819,9.605537,1.1749545,-0.65900403
72,1436284526843,9.545084,1.2964603,-0.6003461
73,1436284526891,9.767744,1.3066356,-0.53450555
74,1436284526892,9.959281,1.1192893,-0.5686229
75,1436284526902,9.930551,1.0654198,-0.6368576
76,1436284526922,9.70789,1.2318168,-0.6925228
77,1436284526938,9.642648,1.340753,-0.6913257
78,1436284526959,9.8437605,1.216853,-0.5746084
79,1436284526978,9.989806,1.0336965,-0.4938041
80,1436284526998,9.79827,1.0791864,-0.60693014
81,1436284527017,9.587581,1.2719196,-0.80325466
82,1436284527037,9.68694,1.282095,-0.7278373
83,1436284527058,9.911995,1.1013328,-0.5506664
84,1436284527077,9.917382,1.0516531,-0.5422867
85,1436284527099,9.725247,1.1671734,-0.6607997
86,1436284527119,9.665991,1.2455834,-0.7320272
87,1436284527138,9.669582,1.3042414,-0.6925228
88,1436284527161,9.855731,1.2174516,-0.53450555
89,1436284527180,9.943718,1.1019313,-0.5518635
90,1436284527200,9.862914,1.0205284,-0.62368953
91,1436284527220,9.677363,1.2533646,-0.60453594
92,1436284527240,9.596559,1.4173675,-0.6452374
93,1436284527260,9.706094,1.3281834,-0.6440403
94,1436284527281,9.841965,1.1552023,-0.6667852
95,1436284527299,9.929353,1.1198878,-0.4405331
96,1436284527319,9.872491,1.0857705,-0.46088383
97,1436284527339,9.857527,1.0384849,-0.52732295
98,1436284527360,9.848549,1.1659763,-0.41299978
99,1436284527383,9.909601,1.1851299,-0.4141969
100,1436284527403,9.962872,1.0923545,-0.4249708
101,1436284527421,9.797672,0.92655605,-0.46148238
102,1436284527439,9.71986,0.8583213,-0.4985925
103,1436284527459,9.639056,0.8858546,-0.58119243
104,1436284527478,9.80665,1.1528081,-0.46387658
105,1436284527499,10.079589,1.2372037,-0.362123
106,1436284527548,10.035895,1.0552444,-0.3226187
107,1436284527549,9.854534,0.79607207,-0.28431144
108,1436284527560,9.904214,0.51475334,-0.3561375
109,1436284527578,10.075399,0.52612585,-0.3657143
110,1436284527598,10.151415,0.87328506,-0.36391866
111,1436284527619,10.155006,1.0103531,-0.38187516
112,1436284527640,10.004171,0.82599956,-0.4165911
113,1436284527659,9.7324295,0.52852005,-0.51235914
114,1436284527679,9.627085,0.3369839,-0.6159084
115,1436284527700,9.933543,0.38845924,-0.63206923
116,1436284527721,10.235212,0.61411273,-0.635062
117,1436284527741,9.973047,0.7469909,-0.7870938
118,1436284527761,9.627085,0.8038532,-0.8912416
119,1436284527780,9.207501,0.7649474,-0.81761986
120,1436284527801,9.731233,0.82240826,-0.58538234
121,1436284527822,10.548853,1.0127473,-0.66738373
122,1436284527841,10.655395,0.8870517,-0.6799533
123,1436284527861,10.116699,0.45010993,-0.65780693
124,1436284527881,9.446322,0.28790274,-0.35793316
125,1436284527901,9.065644,0.5686229,0.219668
126,1436284527919,8.878897,0.9187749,0.53450555
127,1436284527941,9.122507,0.93134445,0.8265981
128,1436284527959,9.69951,0.8571242,0.91697925
129,1436284527980,10.060435,0.7266402,0.8086416
130,1436284528023,10.201095,0.6937199,0.6793547
131,1436284528024,10.243592,1.0169371,0.439336
132,1436284528043,10.038888,1.1707647,0.40462008
133,1436284528058,9.64145,0.94570965,0.55365914
134,1436284528078,9.500193,0.78529817,0.6183026
135,1436284528098,9.462483,0.5805939,0.62728083
136,1436284528119,9.588778,0.5021838,0.7553706
137,1436284528153,9.436746,0.43634325,0.95827925
138,1436284528210,9.200917,0.22266077,0.9672575
139,1436284528211,9.170391,0.12090719,0.88166475
140,1436284528212,9.135675,0.4165911,0.78649527
141,1436284528222,9.015965,0.7733272,0.80564886
142,1436284528239,8.887876,0.58119243,1.0839748
143,1436284528258,8.7609825,0.04369418,1.1911154
144,1436284528280,8.409634,-0.1340753,1.0755951
145,1436284528301,8.100781,0.24001873,0.8367735
146,1436284528320,7.9649105,0.7727286,0.82599956
147,1436284528340,7.8930845,1.198298,0.7152678
148,1436284528359,7.968502,1.2838906,0.86131406
149,1436284528379,8.009203,1.2078748,1.1306617
150,1436284528399,7.9248075,0.96546185,1.2611457
151,1436284528420,7.695563,0.5231331,1.2934675
152,1436284528440,7.9649105,0.1376666,1.7417817
153,1436284528460,8.987833,-0.024540568,1.9003977
154,1436284528480,9.037513,-0.5374983,2.0536265
155,1436284528502,7.6105685,-1.2755109,1.5807717
156,1436284528519,6.535572,-1.5490485,1.6292542
157,1436284528539,7.1167645,-0.82599956,2.130241
158,1436284528559,8.079832,1.0791864,1.9853917
159,1436284528579,7.599196,2.3780408,1.0097545
160,1436284528599,8.908825,0.3764882,-0.10175357
161,1436284528622,13.22557,-2.9502552,-0.4914099
162,1436284528642,15.451579,-4.3742065,-1.489792
163,1436284528663,13.546991,-2.5234885,-1.8626889
164,1436284528680,12.691663,0.46387658,-1.1851299
165,1436284528704,15.758037,0.6404489,0.17717093
166,1436284528720,17.861343,-0.83258367,0.7044938
167,1436284528743,19.603724,-6.282984,0.84694886
168,1436284528763,15.361198,-7.887099,0.16340427
169,1436284528784,9.124303,-3.0083144,0.717662
170,1436284528801,6.751649,3.7816415,0.86969376
171,1436284528823,8.561067,6.7666125,0.66498953
172,1436284528871,12.612655,3.2615013,0.56443304
173,1436284528872,14.055759,-1.2976574,0.5674258
174,1436284528883,10.749367,-2.40318,0.82240826
175,1436284528903,6.84203,-1.3204023,1.2485762
176,1436284528919,6.4020953,-0.35673606,1.240795
177,1436284528941,7.9433627,-0.6338649,1.2078748
178,1436284528962,9.015965,-1.1803415,1.0737995
179,1436284528979,8.529344,-1.5179238,1.0785879
180,1436284528999,8.400655,-1.8549078,1.0761937
181,1436284529019,8.531139,-1.4227544,1.0498575
182,1436284529039,8.358158,-1.0588357,1.2036849
183,1436284529060,7.7679873,-0.3800795,1.2366052
184,1436284529080,7.153276,0.05626374,1.3006501
185,1436284529101,7.0449386,-0.031124622,1.5442601
186,1436284529123,8.431181,-0.39205053,1.7788919
187,1436284529143,9.919776,-0.641646,1.9853917
188,1436284529161,9.740809,-0.2789245,1.6801311
189,1436284529180,6.9024835,0.21308395,1.0319009
190,1436284529201,3.8019924,0.0053869537,0.56563014
191,1436284529226,3.3105824,-1.4814123,0.6512229
192,1436284529241,8.823831,-2.5091233,2.0165164
193,1436284529260,13.818733,-2.9963434,1.7896658
194,1436284529281,12.344504,-1.4939818,0.45549688
195,1436284529301,8.604761,0.20231004,-0.04129998
196,1436284529321,6.8749504,-0.7942764,0.95708215
197,1436284529340,9.592968,-2.767697,1.8722657
198,1436284529361,11.781867,-2.6623523,1.417966
199,1436284529386,13.11843,-1.0827777,0.56982
200,1436284529401,12.49055,1.9602526,-0.830788
201,1436284529421,11.932103,5.3324857,-1.4443022
202,1436284529441,11.271303,6.0447607,0.58538234
203,1436284529460,14.642339,3.6828809,2.777274
204,1436284529486,19.24639,0.39264908,3.5984852
205,1436284529552,18.119318,-2.148796,3.2507274
206,1436284529553,11.681909,-2.8473043,2.5288756
207,1436284529565,6.1489086,-2.0201077,0.75716627
208,1436284529566,4.560954,0.012569559,-0.6799533
209,1436284529580,5.8292828,1.4203602,0.0664391
210,1436284529599,7.2592196,1.13964,1.0576386
211,1436284529620,9.214684,0.36152446,1.8106151
212,1436284529639,10.340557,-0.026934769,2.1751323
213,1436284529660,9.927557,0.2717419,1.7830818
214,1436284529684,9.113529,0.4890157,1.1893197
215,1436284529701,6.591237,0.7128736,0.4914099
216,1436284529722,4.084508,1.0648212,0.30226797
217,1436284529743,4.016872,1.2413936,0.56563014
218,1436284529761,6.1860185,0.96067345,0.58897364
219,1436284529781,7.282563,1.2024878,0.0676362
220,1436284529803,8.032547,1.3611037,0.207697
221,1436284529820,9.631275,0.66498953,0.84455466
222,1436284529841,10.237606,-0.33997664,1.7070658
223,1436284529862,9.42238,-1.6585833,1.4676456
224,1436284529881,8.658031,-2.7114334,1.7106571
225,1436284529904,9.185355,-1.5717934,1.99437
226,1436284529923,9.100361,0.40462008,1.7513585
227,1436284529943,9.718663,0.95708215,1.5466543
228,1436284529963,13.583504,-0.4225766,1.8507179
229,1436284529983,13.805566,-2.7862523,1.3227965
230,1436284530012,12.310986,-4.0659533,1.5149311
231,1436284530027,10.019135,-6.3512187,0.84216046
232,1436284530044,12.012907,-5.5401826,0.8499416
233,1436284530060,18.313847,-1.9189527,3.6463692
234,1436284530080,19.607914,-0.374094,0.36990416
235,1436284530100,18.81603,2.0015526,-2.180519
236,1436284530122,10.624868,4.1222167,1.7160441
237,1436284530169,4.8656163,3.0693667,2.8904
238,1436284530170,2.906561,-0.2741361,1.5951369
239,1436284530180,3.0190883,-3.5218706,1.2593501
240,1436284530204,5.825093,-4.143166,1.4790181
241,1436284530221,8.843582,-3.1543608,1.4377182
242,1436284530242,10.9822035,-1.7304093,1.2150574
243,1436284530261,10.703279,0.350152,0.3866636
244,1436284530281,8.451532,1.1893197,-0.4782418
245,1436284530302,6.637326,0.2885013,-0.12389994
246,1436284530321,6.1584854,-0.44113165,0.37708676
247,1436284530343,6.4583592,-1.3826514,1.5813702
248,1436284530362,7.083844,-1.5460558,2.3373394
249,1436284530382,6.6840124,-1.6747441,2.7365725
250,1436284530403,6.591237,-1.8411411,2.818574
251,1436284530423,7.1107793,-2.5767596,2.3678656
252,1436284530443,8.260594,-2.6641479,1.8441339
253,1436284530463,9.002198,-1.6370354,0.6051345
254,1436284530481,8.398261,-0.22146365,0.20290859
255,1436284530503,9.065046,1.2557588,-0.6063316
256,1436284530525,11.583148,1.9776106,0.20350714
257,1436284530543,13.01129,1.7914615,1.1420342
258,1436284530561,12.888586,-0.14305355,3.132813
259,1436284530581,15.499463,-1.6879122,2.7617116
260,1436284530601,14.733318,-2.1212628,1.2802993
261,1436284530621,10.817602,0.40701428,1.8579005
262,1436284530642,9.852738,2.5210943,1.7160441
263,1436284530662,12.136209,4.59567,2.6120741
264,1436284530688,15.947778,0.8451532,3.6595373
265,1436284530707,13.727754,-3.9013517,1.7411832
266,1436284530728,9.00579,-3.980959,-0.59017074
267,1436284530745,6.8929067,0.29688102,-1.086369
268,1436284530764,7.0221934,4.623802,1.1887212
269,1436284530839,7.7907324,4.712986,2.2062569
270,1436284530840,7.603985,0.7284359,2.9496565
271,1436284530841,5.9400144,-2.907758,2.022502
272,1436284530846,4.785411,-3.2279825,1.039682
273,1436284530862,5.309741,-0.7326257,1.3820529
274,1436284530881,5.7179523,1.7220296,2.2679076
275,1436284530904,5.4593782,3.0909145,1.8938135
276,1436284530924,7.4591355,2.2822728,1.0540473
277,1436284530943,10.571598,-0.44352585,1.1127052
278,1436284530962,11.28926,-1.1971009,1.4856021
279,1436284530983,9.959879,-1.5478514,1.7597382
280,1436284531004,7.909844,-1.3180081,1.240795
281,1436284531023,9.01776,-0.27353755,1.6490064
282,1436284531045,11.866262,-0.092176765,1.9333179
283,1436284531062,12.303204,-2.19249,1.5945383
284,1436284531082,11.341333,-5.016451,1.7190368
285,1436284531101,10.947487,-5.1888337,1.8417397
286,1436284531122,11.886613,-2.7862523,2.5127146
287,1436284531142,16.7229,-1.003769,2.582745
288,1436284531164,19.607914,-0.9223662,1.7866731
289,1436284531183,19.20449,-3.0041246,1.3569138
290,1436284531230,11.095928,-2.3708582,0.6739678
291,1436284531231,3.5781345,0.943914,1.4730326
292,1436284531244,1.8830396,3.750517,0.6015432
293,1436284531262,6.3260794,2.1242554,0.9935937
294,1436284531281,8.688558,0.5363012,1.5957354
295,1436284531301,10.210671,-1.9626468,1.1300632
296,1436284531324,7.7350674,-2.1398177,0.8972271
297,1436284531345,6.302736,-0.521936,0.705691
298,1436284531365,6.7085533,0.8499416,1.1719618
299,1436284531383,6.8893156,0.47285482,1.4544775
300,1436284531402,5.415086,-1.8100165,0.9947908
301,1436284531423,4.4885297,-3.7223852,-0.3429694
302,1436284531453,5.808932,-3.1381998,-0.3597288
303,1436284531501,7.6440873,-2.4259248,0.5506664
304,1436284531502,9.366715,-1.5065514,1.4742297
305,1436284531503,10.226234,0.97743285,0.82360536
306,1436284531523,9.34397,3.6182373,0.33518824
307,1436284531541,10.647015,3.4392707,1.7363948
308,1436284531562,13.818135,0.53809685,3.915717
309,1436284531581,14.63396,-2.4079683,2.2631192
310,1436284531602,15.39771,-2.4768016,1.3581109
311,1436284531622,18.981829,-0.22445641,3.1364043
312,1436284531646,18.515558,0.21547815,3.5368345
313,1436284531664,12.862848,-1.2354081,1.83336
314,1436284531683,8.769362,-0.8265981,0.9139865
315,1436284531705,9.800066,1.5903485,1.6310499
316,1436284531725,12.466608,3.264494,3.084929
317,1436284531745,10.311827,1.6603789,3.304597
318,1436284531764,7.311892,-0.7332243,1.9243397
319,1436284531782,6.105214,-1.0474633,0.89902276
320,1436284531803,6.573281,1.18094,0.9947908
321,1436284531824,7.8146744,2.4343045,2.1649568
322,1436284531845,8.4647,0.6931214,2.8862102
323,1436284531864,8.661623,-1.6310499,2.3894134
324,1436284531884,8.079832,-1.6932992,1.2545617
325,1436284531903,7.542334,0.8655039,1.3359646
326,1436284531926,7.6692266,2.2278047,1.5735891
327,1436284531945,7.678205,2.6449943,1.472434
328,1436284531966,8.668207,1.1785458,1.8435353
329,1436284531983,8.494029,-1.8052281,2.019509
330,1436284532012,7.8104844,-3.0322564,1.8794483
331,1436284532049,7.45734,-1.2653356,2.0913353
332,1436284532050,6.3643866,0.7787141,1.9901801
333,1436284532077,7.1945763,0.5374983,1.5376761
334,1436284532082,10.225636,-1.7363948,0.6344634
335,1436284532106,12.217012,-2.891597,-1.021127
336,1436284532122,12.125435,-2.0721815,-1.5011644
337,1436284532146,12.017695,-1.2360066,-1.1575965
338,1436284532166,14.2383175,-1.1534066,1.0289081
339,1436284532183,17.308283,-3.4811692,4.1335893
340,1436284532202,19.607914,-8.663419,3.6487634
341,1436284532223,19.258959,-6.7947445,0.85532856
342,1436284532246,15.545551,-2.6048915,0.6703765
343,1436284532264,6.7223196,5.7143607,1.2216414
344,1436284532285,2.693477,8.20433,0.92535895
345,1436284532308,5.616797,0.985214,2.3852234
346,1436284532325,9.035717,-6.615778,2.1775265
347,1436284532343,10.333375,-8.295909,1.2366052
348,1436284532365,7.5680714,-4.048595,0.08738836
349,1436284532384,5.1541176,0.10175357,0.044891283
350,1436284532408,6.4463882,1.4514848,0.65780693
351,1436284532423,8.72507,0.008978256,1.4622587
352,1436284532448,9.306861,-1.429937,1.3533225
353,1436284532462,8.368932,-1.6047137,1.316811
354,1436284532482,7.48188,-1.7794905,1.0642227
355,1436284532507,6.899491,-2.0386627,1.4562732
356,1436284532523,6.211756,-1.4317327,0.91817635
357,1436284532546,6.3985043,-0.6847417,0.6572084
358,1436284532563,7.1233487,-0.7751228,0.8798691
359,1436284532584,8.950125,-1.6166847,0.95349085
360,1436284532603,9.050681,-2.0123265,0.46387658
361,1436284532623,7.6321163,-0.6123171,-0.030526072
362,1436284532645,7.888296,0.9032126,0.8702923
363,1436284532665,9.552865,0.40641573,1.472434
364,1436284532687,10.350134,-0.41958386,0.47465047
365,1436284532712,11.625047,0.7565677,-0.40761283
366,1436284532799,13.7445135,1.7567455,2.19249
367,1436284532800,14.289793,0.31783026,4.8638206
368,1436284532801,13.5457945,-1.0642227,3.3375173
369,1436284532802,15.288175,-1.5807717,3.2453403
370,1436284532803,16.200365,-1.7340006,2.891597
371,1436284532823,14.663887,-1.1492168,2.1416135
372,1436284532842,12.245145,0.712275,1.3126211
373,1436284532862,11.194689,2.0883424,1.2174516
374,1436284532882,10.636241,1.8118122,1.8261774
375,1436284532903,8.477868,0.044292733,2.3750482
376,1436284532926,6.6044054,-1.3994108,1.9117701
377,1436284532944,5.345055,-1.690905,1.1498153
378,1436284532966,4.707599,-0.5931635,0.8242039
379,1436284532983,5.0745106,0.7757214,1.0169371
380,1436284533011,5.967548,1.4137762,1.4742297
381,1436284533038,6.493075,1.4981717,1.6400281
382,1436284533049,6.570288,1.4957775,1.5735891
383,1436284533063,7.6883802,1.3605051,2.0135236
384,1436284533083,9.268554,0.374094,2.2439656
385,1436284533103,9.679757,-0.40701428,2.1188686
386,1436284533123,8.556877,-0.78529817,1.1623849
387,1436284533146,7.427412,-0.682946,0.32621
388,1436284533164,7.6841903,-1.0672154,0.92535895
389,1436284533186,9.131485,-1.4407109,2.385822
390,1436284533208,9.643246,-1.5969325,3.2303767
391,1436284533228,10.579977,-1.2120646,2.5683799
392,1436284533248,10.543466,-0.035314474,0.32202014
393,1436284533266,11.1096945,0.0047884034,-0.6931214
394,1436284533286,11.680712,-2.594716,0.51235914
395,1436284533304,14.003686,-5.139154,1.9183542
396,1436284533326,14.996082,-4.1222167,3.052607
397,1436284533345,16.890495,-2.147599,5.341464
398,1436284533368,19.607914,-1.7256209,3.591901
399,1436284533412,17.915213,-0.5758055,-0.54288524
400,1436284533413,9.904813,2.3744495,-0.5734113
401,1436284533423,3.8139634,4.1802764,1.4077905
402,1436284533445,3.7642837,0.97503865,2.9257145
403,1436284533467,7.917625,-4.402937,3.1651347
404,1436284533485,11.3084135,-5.113416,2.2421699
405,1436284533504,9.734225,-2.0111294,0.9056068
406,1436284533527,7.900267,-0.52133745,0.15801731
407,1436284533546,5.609016,0.99299514,-0.86490536
408,1436284533564,5.828684,0.16759412,0.51714754
409,1436284533584,7.5644803,-1.0648212,2.256535
410,1436284533604,7.711724,-1.8770541,2.208651
411,1436284533624,6.0884547,-2.384625,0.94092125
412,1436284533647,5.8215013,-2.497751,0.28909984
413,1436284533667,6.988076,-2.9029696,1.2030864
414,1436284533687,8.514978,-3.2184057,1.2557588
415,1436284533709,8.595782,-2.420538,0.84096336
