id,attr_time,attr_x,attr_y,attr_z
1,1436283202517,2.1990743,9.589376,-1.1569979
2,1436283202590,2.1057005,9.633071,-1.1456255
3,1436283202591,2.1278467,9.5971575,-1.1294646
4,1436283202592,2.295441,9.746795,-1.1803415
5,1436283202593,2.2361844,9.619903,-1.1294646
6,1436283202610,2.3068132,9.677363,-1.0540473
7,1436283202635,2.1972785,9.66659,-1.0905589
8,1436283202648,2.1853075,9.56723,-1.0175357
9,1436283202668,2.2481554,9.576807,-1.0576386
10,1436283202699,2.1697452,9.57142,-1.0289081
11,1436283202709,2.2637177,9.633669,-1.1168951
12,1436283202729,2.2415714,9.66659,-1.0755951
13,1436283202749,2.3223755,9.755774,-1.0696096
14,1436283202771,2.2319946,9.630077,-1.074398
15,1436283202790,2.1086931,9.518148,-1.039682
16,1436283202811,2.1027076,9.555259,-1.1025299
17,1436283202831,1.988983,9.580399,-1.1127052
18,1436283202849,1.9536686,9.534309,-1.1498153
19,1436283202871,1.9422961,9.53012,-1.1049241
20,1436283202890,1.9405005,9.609727,-1.1737574
21,1436283202909,1.9476831,9.484032,-1.1085154
22,1436283202932,2.0380642,9.463681,-1.062427
23,1436283202949,2.1481974,9.549872,-1.0684125
24,1436283202970,2.1871033,9.628283,-1.1055226
25,1436283202991,2.1841104,9.633669,-1.115698
26,1436283203012,2.2631192,9.643246,-1.1001357
27,1436283203029,2.2559366,9.552865,-1.0648212
28,1436283203052,2.3241713,9.615114,-1.0540473
29,1436283203072,2.272696,9.703699,-1.1294646
30,1436283203093,2.2409728,9.637859,-1.1216835
31,1436283203141,2.232593,9.581595,-1.1498153
32,1436283203142,2.243367,9.551069,-1.1330559
33,1436283203195,2.2691047,9.602545,-1.1300632
34,1436283203199,2.3014264,9.624092,-1.1372458
35,1436283203200,2.2984335,9.5732155,-1.1336545
36,1436283203209,2.2768857,9.578004,-1.1653777
37,1436283203491,2.2744915,9.518148,-1.1426327
38,1436283203492,2.2732944,9.526528,-1.1414356
39,1436283203493,2.3259668,9.553463,-1.1264719
40,1436283203494,2.3481133,9.6049385,-1.158195
41,1436283203495,2.404377,9.635465,-1.1773487
42,1436283203496,2.4516625,9.618706,-1.1821371
43,1436283203497,2.4486697,9.570223,-1.1815386
44,1436283203498,2.432509,9.606135,-1.2054806
45,1436283203499,2.3307555,9.591172,-1.186327
46,1436283203500,2.3229742,9.56304,-1.1905168
47,1436283203501,2.2972364,9.543288,-1.2264298
48,1436283203502,2.3415294,9.531916,-1.2036849
49,1436283203503,2.3002293,9.575011,-1.2372037
50,1436283203504,2.3349452,9.586982,-1.2156559
51,1436283203510,2.3714569,9.539098,-1.210269
52,1436283203529,2.4127567,9.512762,-1.1899183
53,1436283203549,2.4025815,9.5798,-1.2258313
54,1436283203570,2.3762453,9.536704,-1.234211
55,1436283203590,2.3463178,9.569026,-1.258153
56,1436283203611,2.3241713,9.587581,-1.2958617
57,1436283203628,2.3786395,9.554661,-1.2695254
58,1436283203649,2.303222,9.615712,-1.3054385
59,1436283203672,2.284667,9.589376,-1.2958617
60,1436283203690,2.2888567,9.543886,-1.2569559
61,1436283203710,2.3211784,9.566631,-1.2665327
62,1436283203730,2.3535004,9.601946,-1.2665327
63,1436283203751,2.3558946,9.606135,-1.2761095
64,1436283203768,2.3421278,9.591172,-1.264737
65,1436283203791,2.303222,9.583989,-1.2761095
66,1436283203812,2.2703018,9.563639,-1.2401965
67,1436283203832,2.2613235,9.553463,-1.2437878
68,1436283203850,2.2732944,9.548675,-1.2318168
69,1436283203872,2.231396,9.551667,-1.1935096
70,1436283203892,2.2296004,9.534309,-1.2126632
71,1436283203910,2.2535424,9.5492735,-1.2378023
72,1436283203929,2.3451207,9.554661,-1.2114661
73,1436283203949,2.3439236,9.639654,-1.2605472
74,1436283204010,2.296638,9.667188,-1.282095
75,1436283204011,2.256535,9.598953,-1.2455834
76,1436283204012,2.2373815,9.554661,-1.2473791
77,1436283204028,2.2002714,9.56304,-1.2575544
78,1436283204048,2.190096,9.554661,-1.2491747
79,1436283204070,2.1392193,9.58818,-1.2078748
80,1436283204088,2.107496,9.494206,-1.1755531
81,1436283204108,2.130241,9.400833,-1.1791444
82,1436283204128,2.1529858,9.454104,-1.2378023
83,1436283204149,2.220622,9.496601,-1.2677298
84,1436283204168,2.3241713,9.627684,-1.2539631
85,1436283204188,2.2870612,9.6288805,-1.270124
86,1436283204208,2.3157916,9.633071,-1.2671312
87,1436283204228,2.319383,9.598953,-1.2958617
88,1436283204248,2.3355439,9.657611,-1.2797008
89,1436283204268,2.3463178,9.577405,-1.2306197
90,1436283204288,2.3774424,9.570822,-1.2671312
91,1436283204308,2.3349452,9.60853,-1.2689269
92,1436283204328,2.397793,9.631275,-1.2677298
93,1436283204348,2.3828292,9.60853,-1.2162545
94,1436283204368,2.445677,9.671976,-1.1839328
95,1436283204388,2.3798366,9.735423,-1.1887212
96,1436283204412,2.4516625,9.709685,-1.234211
97,1436283204433,2.409764,9.589975,-1.1833342
98,1436283204450,2.3989902,9.539697,-1.1330559
99,1436283204473,2.1613655,9.648633,-1.1438298
100,1436283204489,2.1996727,9.713276,-1.1623849
101,1436283204510,2.184709,9.485827,-1.1204864
102,1436283204531,2.235586,9.396045,-1.0510546
103,1436283204551,1.9626468,9.485827,-1.0755951
104,1436283204572,2.168548,9.788095,-1.1755531
105,1436283204591,1.9381063,9.384073,-1.1162965
106,1436283204618,1.8483237,9.422979,-1.103727
107,1436283204633,1.894412,9.69113,-1.2617443
108,1436283204655,1.8549078,9.61272,-1.1091139
109,1436283204671,1.9578584,9.570822,-1.1384429
110,1436283204703,2.0248961,9.452907,-1.0085574
111,1436283204710,2.1739352,9.576807,-1.0498575
112,1436283204733,2.3953989,9.921572,-1.1121067
113,1436283204751,2.280477,9.776124,-1.0702082
114,1436283204771,2.2224178,9.694122,-1.055843
115,1436283204793,2.0775685,9.576208,-1.0684125
116,1436283204815,1.988983,9.574412,-1.0809821
117,1436283204833,1.9985598,9.711481,-1.1851299
118,1436283204853,1.9476831,9.614515,-1.1492168
119,1436283204873,1.8327614,9.478046,-1.1001357
120,1436283204893,1.8608932,9.59177,-1.127669
121,1436283204911,1.910573,9.726444,-1.163582
122,1436283204930,1.8201919,9.572019,-1.1025299
123,1436283204950,1.9009962,9.467272,-0.9816227
124,1436283204970,1.8219875,9.487623,-0.9708488
125,1436283204992,1.9147629,9.593566,-1.0313023
126,1436283205010,1.8806454,9.527725,-0.97982705
127,1436283205031,2.022502,9.775525,-0.97384155
128,1436283205050,2.047641,9.697116,-1.0103531
129,1436283205070,1.9835961,9.647436,-1.009156
130,1436283205090,2.054225,9.70789,-1.0067618
131,1436283205110,1.9428947,9.60015,-1.0109516
132,1436283205133,1.8088194,9.501988,-0.9995792
133,1436283205152,1.7914615,9.598354,-1.0426749
134,1436283205173,1.9871874,9.594165,-1.027711
135,1436283205191,2.0278888,9.545084,-1.0079589
136,1436283205211,2.0410569,9.623494,-1.0737995
137,1436283205232,2.1015105,9.73662,-1.1025299
138,1436283205352,2.0446482,9.645041,-1.0881647
139,1436283205353,2.1733365,9.566033,-1.0283096
140,1436283205354,2.2720973,9.552865,-1.0133458
141,1436283205355,2.3133974,9.6845455,-1.0366893
142,1436283205356,2.3014264,9.626487,-1.0618285
143,1436283205357,2.32058,9.610326,-1.0486604
144,1436283205408,2.3050177,9.624092,-1.0702082
145,1436283205409,2.3523033,9.583989,-1.0588357
146,1436283205413,2.4127567,9.654019,-1.0923545
147,1436283205456,2.355296,9.725846,-1.0971429
148,1436283205457,2.2894554,9.622895,-1.0654198
149,1436283205479,2.2278047,9.528923,-1.0474633
150,1436283205490,2.2403743,9.606135,-1.0642227
151,1436283205513,2.2720973,9.537302,-1.055843
152,1436283205530,2.224812,9.577405,-1.0600328
153,1436283205551,2.2218192,9.567828,-1.0522517
154,1436283205572,2.2559366,9.583989,-1.0486604
155,1436283205593,2.3145945,9.585785,-1.0600328
156,1436283205613,2.3319526,9.609727,-1.0851719
157,1436283205632,2.2996306,9.613917,-1.0941502
158,1436283205653,2.2319946,9.568427,-1.0690111
159,1436283205673,2.2373815,9.612122,-1.0761937
160,1436283205693,2.2894554,9.584588,-1.0570401
161,1436283205713,2.3331497,9.606734,-1.0636241
162,1436283205733,2.3110032,9.664195,-1.1127052
163,1436283205751,2.284667,9.570822,-1.0851719
164,1436283205773,2.2822728,9.499594,-1.0570401
165,1436283205793,2.271499,9.635465,-1.1013328
166,1436283205812,2.2349873,9.704897,-1.1665748
167,1436283205832,2.1960814,9.64983,-1.1312603
168,1436283205853,2.1428106,9.476251,-1.09834
169,1436283205873,2.2038627,9.457695,-1.0630256
170,1436283205894,2.3038206,9.625289,-1.122282
171,1436283205914,2.3265655,9.64983,-1.1414356
172,1436283205933,2.2583308,9.64564,-1.1378443
173,1436283205954,2.247557,9.589376,-1.1402385
174,1436283205974,2.2984335,9.59177,-1.1528081
175,1436283205994,2.2523453,9.547478,-1.1210849
176,1436283206021,2.1529858,9.47206,-1.1073183
177,1436283206032,2.1092918,9.446921,-1.1073183
178,1436283206097,2.1739352,9.460688,-1.0893618
179,1436283206098,2.2774844,9.636662,-1.1558008
180,1436283206099,2.3403323,9.694122,-1.1414356
181,1436283206110,2.3014264,9.627684,-1.1354501
182,1436283206131,2.224812,9.524135,-1.103727
183,1436283206155,2.273893,9.540894,-1.0791864
184,1436283206173,2.348712,9.552266,-1.0642227
185,1436283206194,2.2918496,9.564238,-1.09834
186,1436283206213,2.2547395,9.576208,-1.1097125
187,1436283206232,2.2906525,9.612122,-1.1013328
188,1436283206253,2.4355016,9.6049385,-1.1001357
189,1436283206273,2.4229321,9.631275,-1.1480197
190,1436283206294,2.3391352,9.521142,-1.1444284
191,1436283206311,2.2936451,9.439739,-1.1456255
192,1436283206335,2.2056582,9.594165,-1.074398
193,1436283206354,2.1266496,9.402629,-1.073201
194,1436283206373,1.9632454,9.233837,-1.0241197
195,1436283206394,2.2170308,9.481637,-1.1348516
196,1436283206414,2.4091654,9.704897,-1.2443863
197,1436283206434,2.5390508,9.707291,-1.246182
198,1436283206459,2.6198552,9.595961,-1.1593921
199,1436283206473,2.670732,9.588778,-1.0857705
200,1436283206497,2.7084408,9.642049,-1.09834
201,1436283206511,2.574964,9.6049385,-1.1216835
202,1436283206531,2.4474726,9.473258,-1.1312603
203,1436283206557,2.3720553,9.44752,-1.1198878
204,1436283206571,2.3959973,9.36911,-1.1079168
205,1436283206594,2.3756466,9.388264,-1.1109096
206,1436283206613,2.4259248,9.545682,-1.2270284
207,1436283206633,2.4498668,9.524135,-1.2246342
208,1436283206653,2.4343045,9.479243,-1.2012907
209,1436283206677,2.4408886,9.512163,-1.2419921
210,1436283206697,2.5049336,9.416395,-1.1821371
211,1436283206717,2.5570073,9.462483,-1.1917139
212,1436283206733,2.6767175,9.555259,-1.2072762
213,1436283206754,2.758719,9.582193,-1.1976994
214,1436283206843,2.8491,9.677363,-1.1959038
215,1436283206844,2.8682537,9.610326,-1.2252327
216,1436283206845,2.8808231,9.603143,-1.2108675
217,1436283206846,2.8257565,9.540296,-1.192911
218,1436283206858,2.7724855,9.466674,-1.204882
219,1436283206873,2.7563248,9.427768,-1.2054806
220,1436283206895,2.706645,9.463082,-1.2054806
221,1436283206912,2.7216089,9.400833,-1.151611
222,1436283206938,2.7252002,9.357139,-1.1139023
223,1436283206963,2.6743233,9.333796,-1.1713632
224,1436283206974,2.5887306,9.36911,-1.2419921
225,1436283206994,2.5312698,9.515156,-1.3245921
226,1436283207014,2.552219,9.575011,-1.4089876
227,1436283207032,2.5905263,9.544485,-1.4293385
228,1436283207052,2.6234465,9.513959,-1.435324
229,1436283207073,2.6144683,9.507974,-1.42455
230,1436283207095,2.597709,9.548675,-1.423353
231,1436283207115,2.5725696,9.528923,-1.4275428
232,1436283207135,2.542642,9.48044,-1.417966
233,1436283207154,2.5983074,9.455301,-1.389834
234,1436283207175,2.6042929,9.467871,-1.3617022
235,1436283207194,2.5198972,9.527127,-1.4095862
236,1436283207215,2.510919,9.455301,-1.4000094
237,1436283207233,2.546832,9.393052,-1.3796587
238,1436283207256,2.56419,9.433753,-1.3976152
239,1436283207275,2.5773582,9.521142,-1.4263457
240,1436283207292,2.5971103,9.520543,-1.4185646
241,1436283207314,2.6354175,9.501988,-1.4173675
242,1436283207335,2.6611552,9.467871,-1.4077905
243,1436283207354,2.6473885,9.42238,-1.411382
244,1436283207375,2.6491842,9.485827,-1.4347254
245,1436283207396,2.6372132,9.500193,-1.4155718
246,1436283207415,2.6731262,9.470264,-1.4239515
247,1436283207435,2.6856956,9.504382,-1.4425066
248,1436283207454,2.6940753,9.511565,-1.4437037
249,1436283207474,2.6557682,9.462483,-1.453879
250,1436283207503,2.5941176,9.440337,-1.5071499
251,1436283207564,2.6593595,9.291897,-1.4933833
252,1436283207565,2.5510218,9.47206,-1.4059949
253,1436283207566,2.2661119,9.791686,-1.536479
254,1436283207583,2.415151,9.647436,-1.7304093
255,1436283207593,2.4504654,9.566033,-1.8207904
256,1436283207613,2.2421699,9.81503,-2.0392613
257,1436283207634,2.1021092,9.88925,-2.1763294
258,1436283207653,2.2756886,9.633669,-2.0925324
259,1436283207674,2.2667105,9.444528,-2.0608091
260,1436283207694,2.2349873,9.248202,-2.0177135
261,1436283207717,2.0655975,9.276933,-1.9674352
262,1436283207734,2.088941,9.411607,-2.147599
263,1436283207756,2.071583,9.626487,-2.2601264
264,1436283207773,1.8662802,9.701904,-2.4343045
265,1436283207796,1.7914615,9.627684,-2.433706
266,1436283207814,1.9973627,9.48882,-2.2697031
267,1436283207837,2.132635,9.389461,-2.171541
268,1436283207856,2.0655975,9.446322,-2.0733786
269,1436283207876,2.0213048,9.346964,-1.8764555
270,1436283207896,2.2056582,9.194932,-1.5813702
271,1436283207914,2.4013844,9.300875,-1.2623428
272,1436283207937,2.292448,9.552865,-1.1360487
273,1436283207957,2.3523033,9.5809965,-0.9660604
274,1436283207999,2.4259248,9.415796,-0.7763199
275,1436283208000,2.420538,9.299079,-0.5674258
276,1436283208036,2.6461914,9.135675,-0.3657143
277,1436283208037,2.9694088,8.747216,-0.01316811
278,1436283208063,2.634819,9.059659,0.23702596
279,1436283208073,2.3654714,9.390059,0.24241292
280,1436283208093,2.4073699,9.234436,0.6398504
281,1436283208114,2.5312698,9.239823,0.8074445
282,1436283208133,2.7072437,9.383475,0.9151836
283,1436283208153,3.0753522,9.355343,1.0510546
284,1436283208176,3.7511156,9.516952,1.1911154
285,1436283208198,4.267066,9.786898,1.2904748
286,1436283208214,4.325724,9.94312,1.2779051
287,1436283208235,4.0156746,9.719262,1.3916297
288,1436283208315,3.721188,9.328408,1.714847
289,1436283208316,3.3237505,9.152434,1.8088194
290,1436283208317,3.127426,8.811859,2.0769699
291,1436283208318,3.1549592,8.610746,2.3630772
292,1436283208333,3.3740287,8.702923,2.3660698
293,1436283208354,3.615843,8.455123,2.3068132
294,1436283208373,3.7110126,8.282143,2.2667105
295,1436283208401,4.127005,7.9966335,2.223615
296,1436283208420,4.296395,7.719505,2.0320787
297,1436283208439,3.7565024,7.436989,1.7208325
298,1436283208455,3.007716,7.5968018,1.6681601
299,1436283208473,2.4450784,7.4483614,1.8052281
300,1436283208501,2.2134395,7.03177,1.8626889
301,1436283208514,2.0572178,7.059902,1.7477672
302,1436283208563,1.7172412,7.701548,1.5221137
303,1436283208564,1.5945383,7.8649526,1.3210008
304,1436283208577,2.0380642,7.367557,1.4838065
305,1436283208597,2.1948843,7.844003,1.7399861
306,1436283208617,1.4490906,9.235633,1.2731167
307,1436283208634,1.2683283,9.337985,0.8690952
308,1436283208657,1.2623428,9.03452,1.1025299
309,1436283208677,1.5316905,8.825626,0.9672575
310,1436283208694,1.2270284,9.537901,1.1611878
311,1436283208717,1.471237,10.00477,1.3694834
312,1436283208734,2.3068132,10.593744,1.4449008
313,1436283208758,2.5689783,10.71106,1.7555484
314,1436283208777,2.5498247,10.764331,1.2533646
315,1436283208798,2.949058,9.630676,1.043872
316,1436283208817,0.830788,11.37186,2.1853075
317,1436283208836,-2.939481,15.916055,1.8046296
318,1436283208856,-0.035314474,16.166248,0.60932434
319,1436283208877,3.894169,11.520899,1.7848774
320,1436283208897,6.2626333,10.658387,2.0248961
321,1436283208915,6.3392477,12.624027,-0.36870706
322,1436283208934,4.245518,13.315352,-2.35769
323,1436283208958,3.2722752,10.663176,-1.6932992
324,1436283208991,1.988983,8.591593,-0.7679402
325,1436283208993,0.035913024,7.911041,-0.29867667
326,1436283209015,-0.75956047,7.3992805,0.074220255
327,1436283209034,-0.4973954,6.727707,0.56682724
328,1436283209054,-0.2705448,6.0716953,0.88525605
329,1436283209076,0.31304187,5.415684,0.9343372
330,1436283209097,1.3634979,4.534618,1.0720038
331,1436283209113,1.922544,3.7181952,1.2144588
332,1436283209134,0.7290344,4.3035774,0.9876082
333,1436283209154,-0.16879122,6.5666966,0.22266077
334,1436283209175,-0.75956047,7.714118,-0.17537527
335,1436283209197,-0.61112,8.113351,0.02873042
336,1436283209217,-0.40521863,8.356362,0.2801216
337,1436283209237,-0.44651863,8.756194,-0.14425065
338,1436283209258,-0.24839842,8.923788,0.3561375
339,1436283209277,0.38606504,8.786121,0.9463082
340,1436283209297,1.1372458,9.7719345,0.81343
341,1436283209317,1.4209588,11.249157,0.84216046
342,1436283209337,1.8866309,12.668919,1.1486182
343,1436283209355,3.0382419,13.231556,1.9782091
344,1436283209378,4.074931,13.39915,2.3678656
345,1436283209396,4.689044,13.802573,2.360683
346,1436283209415,3.3476925,15.007455,2.7042508
347,1436283209435,2.7647045,15.294161,1.6885108
348,1436283209456,2.7623103,13.400347,1.3090298
349,1436283209480,2.541445,12.686276,0.5614403
350,1436283209500,2.2679076,12.438477,0.18555063
351,1436283209518,1.6675615,12.106879,0.04309563
352,1436283209536,1.2671312,10.830172,0.27353755
353,1436283209555,1.541866,9.202114,0.7529764
354,1436283209575,1.5023615,7.502231,0.74878657
355,1436283209596,0.5153519,5.9160724,0.37708676
356,1436283209620,-0.86610246,4.9853263,-0.006584055
357,1436283209681,-1.2880806,5.01286,-0.14664486
358,1436283209682,-0.7314286,4.9661727,-0.078410104
359,1436283209683,-0.4878186,4.486734,0.06943185
360,1436283209705,-0.8218097,4.519056,0.047285482
361,1436283209714,-1.0187328,5.3127337,0.19273324
362,1436283209743,-0.90620536,6.3512187,0.16879122
363,1436283209755,-0.16819267,6.727707,0.1328782
364,1436283209777,0.15442601,7.5668745,-0.20949265
365,1436283209796,1.0313023,7.892486,-0.6991069
366,1436283209821,-0.30047232,9.296086,0.65182143
367,1436283209836,-1.3910311,11.896789,-0.094570965
368,1436283209856,1.0851719,12.092514,-0.90500826
369,1436283209878,1.7705121,13.159131,-0.15502456
370,1436283209898,3.1974564,13.088502,-0.84814596
371,1436283209918,3.0442274,15.224729,-0.6913257
372,1436283209938,-0.92775315,19.580978,-2.1745336
373,1436283209958,4.2000284,19.544468,-4.1760864
374,1436283209978,7.3507977,14.173076,-3.3345244
375,1436283209998,5.8693852,12.178107,-2.1350293
376,1436283210015,4.4328647,11.865065,-3.052607
377,1436283210038,3.6373909,11.258734,-3.4386723
378,1436283210058,2.0614076,10.246585,-2.658761
379,1436283210075,1.3605051,8.582615,-2.4109612
380,1436283210098,0.80325466,6.919243,-1.8567034
381,1436283210117,0.054468088,5.6964045,-1.0301052
382,1436283210138,0.061650693,4.7141833,-0.521936
383,1436283210159,0.5009867,3.9091327,-0.18255788
384,1436283210177,0.28431144,3.572149,0.17956513
385,1436283210198,0.030526072,4.3783965,0.28790274
386,1436283210218,-0.19632454,5.456984,0.16639702
387,1436283210238,-0.142455,6.3739634,-0.20410569
388,1436283210258,0.12689269,7.7488337,-0.58777654
389,1436283210276,0.2148796,9.332,-1.0600328
390,1436283210297,0.49799395,10.421362,-1.5957354
391,1436283210317,0.7308301,10.866084,-1.8154035
392,1436283210335,0.8242039,9.967062,-1.8243817
393,1436283210356,0.50876784,8.737639,-1.3018472
394,1436283210404,-0.08319851,8.048109,-1.1408371
395,1436283210405,-0.45070848,8.455722,-0.46507367
396,1436283210429,0.83856916,8.98903,-0.6266823
397,1436283210435,1.7202339,10.564415,-0.7721301
398,1436283210455,2.463035,11.814188,-1.2030864
399,1436283210478,2.268506,13.825916,-1.2401965
400,1436283210495,0.8523358,16.815077,-0.39923313
401,1436283210516,1.0462662,18.550274,-0.3657143
402,1436283210541,3.8295257,14.975732,-0.7739257
403,1436283210557,4.486734,13.632585,0.02633622
404,1436283210577,4.012682,13.409924,-0.06404489
405,1436283210597,3.5715504,12.776059,-0.031124622
406,1436283210618,3.1591492,11.618463,0.02633622
407,1436283210639,3.0813377,10.028113,0.074220255
408,1436283210659,2.7018566,8.503606,0.3705027
409,1436283210679,1.8303672,7.4405804,0.676362
410,1436283210698,1.2360066,6.505046,0.6901286
411,1436283210719,0.961272,5.4162827,0.7254431
412,1436283210739,0.7457938,4.3382936,0.7733272
413,1436283210759,0.17298107,3.6337996,0.94092125
414,1436283210780,0.0796072,3.9187095,0.93972415
415,1436283210798,0.13108255,4.4699745,0.87687635
416,1436283210817,0.13587095,5.047576,0.97623575
417,1436283210839,0.36750996,6.2554507,0.7565677
418,1436283210859,1.0103531,7.3346367,0.3597288
419,1436283210876,1.5915456,7.8829093,0.22565351
